CONFEDERACIÓN HIDROGRÁFICA DEL EBRO
Red de alerta de calidad
Proyecto SAICA
Fichero de exportación de datos históricos.
No se incluyen valores considerados como <<no válidos>>.
905-Ebro en Presa Pina
Absorbancia 254nm (un.Abs/m)
Fecha inicial: 01-01-2005 00:00:00
Fecha final: 31-12-2010 23:59:59

Fecha;Valor
11-11-2010 15:45:00;8,10
11-11-2010 16:00:00;8,10
11-11-2010 16:15:00;8,00
11-11-2010 16:30:00;8,10
11-11-2010 16:45:00;8,10
11-11-2010 17:00:00;8,10
11-11-2010 17:15:00;8,30
11-11-2010 17:30:00;8,30
11-11-2010 17:45:00;8,40
11-11-2010 18:00:00;8,40
11-11-2010 18:15:00;8,30
11-11-2010 18:30:00;8,40
11-11-2010 18:45:00;8,60
11-11-2010 19:00:00;8,60
11-11-2010 19:15:00;8,70
11-11-2010 19:30:00;8,80
11-11-2010 19:45:00;8,60
11-11-2010 20:00:00;8,70
11-11-2010 20:15:00;8,70
11-11-2010 20:30:00;8,70
11-11-2010 20:45:00;8,90
11-11-2010 21:00:00;8,90
11-11-2010 21:15:00;8,80
11-11-2010 21:30:00;9,00
11-11-2010 21:45:00;9,00
11-11-2010 22:00:00;8,90
11-11-2010 22:15:00;8,90
11-11-2010 22:30:00;8,90
11-11-2010 22:45:00;9,00
11-11-2010 23:00:00;9,10
11-11-2010 23:15:00;9,00
11-11-2010 23:30:00;9,10
11-11-2010 23:45:00;9,00
12-11-2010 00:00:00;9,10
12-11-2010 00:15:00;9,00
12-11-2010 00:30:00;9,00
12-11-2010 00:45:00;9,10
12-11-2010 01:00:00;9,10
12-11-2010 01:15:00;9,10
12-11-2010 01:30:00;9,20
12-11-2010 01:45:00;9,20
12-11-2010 02:00:00;9,20
12-11-2010 02:15:00;9,20
12-11-2010 02:30:00;9,20
12-11-2010 02:45:00;9,20
12-11-2010 03:00:00;9,20
12-11-2010 03:15:00;9,20
12-11-2010 03:30:00;9,20
12-11-2010 03:45:00;9,20
12-11-2010 04:00:00;9,20
12-11-2010 04:15:00;9,30
12-11-2010 04:30:00;9,20
12-11-2010 04:45:00;9,20
12-11-2010 05:00:00;9,10
12-11-2010 05:15:00;9,20
12-11-2010 05:30:00;9,10
12-11-2010 05:45:00;9,20
12-11-2010 06:00:00;9,20
12-11-2010 06:15:00;9,20
12-11-2010 06:30:00;9,20
12-11-2010 06:45:00;9,20
12-11-2010 07:00:00;9,30
12-11-2010 07:15:00;9,20
12-11-2010 07:30:00;9,20
12-11-2010 07:45:00;9,50
12-11-2010 08:00:00;9,50
12-11-2010 08:15:00;9,30
12-11-2010 08:30:00;9,20
12-11-2010 08:45:00;9,40
12-11-2010 09:00:00;9,40
12-11-2010 09:15:00;9,20
12-11-2010 09:30:00;9,40
12-11-2010 09:45:00;9,50
12-11-2010 10:00:00;9,70
12-11-2010 10:15:00;9,80
12-11-2010 10:30:00;10,00
12-11-2010 10:45:00;10,00
12-11-2010 11:00:00;10,20
12-11-2010 11:15:00;10,20
12-11-2010 11:30:00;10,20
12-11-2010 11:45:00;10,30
12-11-2010 12:00:00;10,60
12-11-2010 12:15:00;10,80
12-11-2010 12:30:00;10,60
12-11-2010 12:45:00;10,90
12-11-2010 13:00:00;11,10
12-11-2010 13:15:00;11,20
12-11-2010 13:30:00;11,40
12-11-2010 13:45:00;11,40
12-11-2010 14:00:00;11,60
12-11-2010 14:15:00;11,70
12-11-2010 14:30:00;12,00
12-11-2010 14:45:00;11,80
12-11-2010 15:00:00;11,70
12-11-2010 15:15:00;12,20
12-11-2010 15:30:00;12,20
12-11-2010 15:45:00;12,30
12-11-2010 16:00:00;12,70
12-11-2010 16:15:00;13,00
12-11-2010 16:30:00;13,20
12-11-2010 16:45:00;13,60
12-11-2010 17:00:00;13,70
12-11-2010 17:15:00;14,00
12-11-2010 17:30:00;14,50
12-11-2010 17:45:00;14,50
12-11-2010 18:00:00;15,00
12-11-2010 18:15:00;14,90
12-11-2010 18:30:00;15,00
12-11-2010 18:45:00;15,60
12-11-2010 19:00:00;15,90
12-11-2010 19:15:00;15,80
12-11-2010 19:30:00;16,20
12-11-2010 19:45:00;16,40
12-11-2010 20:00:00;16,80
12-11-2010 20:15:00;17,00
12-11-2010 20:30:00;17,50
12-11-2010 20:45:00;17,50
12-11-2010 21:00:00;17,80
12-11-2010 21:15:00;18,10
12-11-2010 21:30:00;18,10
12-11-2010 21:45:00;18,30
12-11-2010 22:00:00;17,10
12-11-2010 22:15:00;16,80
12-11-2010 22:30:00;17,90
12-11-2010 22:45:00;18,70
12-11-2010 23:00:00;18,60
12-11-2010 23:15:00;18,40
12-11-2010 23:30:00;18,20
12-11-2010 23:45:00;18,20
13-11-2010 00:00:00;17,70
13-11-2010 00:15:00;17,30
13-11-2010 00:30:00;17,20
13-11-2010 00:45:00;17,00
13-11-2010 01:00:00;17,40
13-11-2010 01:15:00;16,90
13-11-2010 01:30:00;16,80
13-11-2010 01:45:00;16,80
13-11-2010 02:00:00;16,90
13-11-2010 02:15:00;16,80
13-11-2010 02:30:00;16,50
13-11-2010 02:45:00;16,40
13-11-2010 03:00:00;16,50
13-11-2010 03:15:00;16,40
13-11-2010 03:30:00;16,40
13-11-2010 03:45:00;16,20
13-11-2010 04:00:00;16,10
13-11-2010 04:15:00;16,90
13-11-2010 04:30:00;16,60
13-11-2010 04:45:00;18,50
13-11-2010 05:00:00;18,90
13-11-2010 05:15:00;18,80
13-11-2010 05:30:00;18,80
13-11-2010 05:45:00;19,40
13-11-2010 06:00:00;19,10
13-11-2010 06:15:00;19,80
13-11-2010 06:30:00;22,80
13-11-2010 06:45:00;22,90
13-11-2010 07:00:00;25,60
13-11-2010 07:15:00;25,30
13-11-2010 07:30:00;24,60
13-11-2010 07:45:00;23,30
13-11-2010 08:00:00;22,60
13-11-2010 08:15:00;21,90
13-11-2010 08:30:00;21,30
13-11-2010 08:45:00;20,60
13-11-2010 09:00:00;19,90
13-11-2010 09:15:00;19,30
13-11-2010 09:30:00;19,50
13-11-2010 09:45:00;20,10
13-11-2010 10:00:00;19,20
13-11-2010 10:15:00;18,90
13-11-2010 10:30:00;19,00
13-11-2010 10:45:00;18,80
13-11-2010 11:00:00;18,60
13-11-2010 11:15:00;18,60
13-11-2010 11:30:00;18,80
13-11-2010 11:45:00;18,20
13-11-2010 12:00:00;19,00
13-11-2010 12:15:00;18,40
13-11-2010 12:30:00;19,00
13-11-2010 12:45:00;18,90
13-11-2010 13:00:00;19,40
13-11-2010 13:15:00;19,90
13-11-2010 13:30:00;20,20
13-11-2010 13:45:00;19,90
13-11-2010 14:00:00;19,60
13-11-2010 14:15:00;19,20
13-11-2010 14:30:00;19,40
13-11-2010 14:45:00;18,50
13-11-2010 15:00:00;18,40
13-11-2010 15:15:00;18,80
13-11-2010 15:30:00;18,80
13-11-2010 15:45:00;18,90
13-11-2010 16:00:00;18,80
13-11-2010 16:15:00;19,00
13-11-2010 16:30:00;19,20
13-11-2010 16:45:00;18,80
13-11-2010 17:00:00;18,40
13-11-2010 17:15:00;18,50
13-11-2010 17:30:00;18,70
13-11-2010 17:45:00;18,70
13-11-2010 18:00:00;18,80
13-11-2010 18:15:00;18,80
13-11-2010 18:30:00;18,80
13-11-2010 18:45:00;18,40
13-11-2010 19:00:00;18,70
13-11-2010 19:15:00;18,90
13-11-2010 19:30:00;18,80
13-11-2010 19:45:00;19,20
13-11-2010 20:00:00;19,30
13-11-2010 20:15:00;19,10
13-11-2010 20:30:00;19,20
13-11-2010 20:45:00;19,20
13-11-2010 21:00:00;19,20
13-11-2010 21:15:00;19,10
13-11-2010 21:30:00;19,00
13-11-2010 21:45:00;19,10
13-11-2010 22:00:00;19,20
13-11-2010 22:15:00;18,90
13-11-2010 22:30:00;19,00
13-11-2010 22:45:00;19,00
13-11-2010 23:00:00;19,10
13-11-2010 23:15:00;19,10
13-11-2010 23:30:00;19,00
13-11-2010 23:45:00;19,10
14-11-2010 00:00:00;19,00
14-11-2010 00:15:00;19,20
14-11-2010 00:30:00;19,00
14-11-2010 00:45:00;19,20
14-11-2010 01:00:00;19,20
14-11-2010 01:15:00;19,40
14-11-2010 01:30:00;19,30
14-11-2010 01:45:00;19,20
14-11-2010 02:00:00;19,20
14-11-2010 02:15:00;18,80
14-11-2010 02:30:00;19,10
14-11-2010 02:45:00;19,20
14-11-2010 03:00:00;19,00
14-11-2010 03:15:00;18,90
14-11-2010 03:30:00;19,00
14-11-2010 03:45:00;18,90
14-11-2010 04:00:00;18,80
14-11-2010 04:15:00;18,70
14-11-2010 04:30:00;18,80
14-11-2010 04:45:00;18,80
14-11-2010 05:00:00;18,80
14-11-2010 05:15:00;18,50
14-11-2010 05:30:00;18,80
14-11-2010 05:45:00;18,60
14-11-2010 06:00:00;18,70
14-11-2010 06:15:00;18,60
14-11-2010 06:30:00;18,50
14-11-2010 06:45:00;18,50
14-11-2010 07:00:00;18,50
14-11-2010 07:15:00;18,50
14-11-2010 07:30:00;18,20
14-11-2010 07:45:00;18,40
14-11-2010 08:00:00;18,40
14-11-2010 08:15:00;18,30
14-11-2010 08:30:00;18,40
14-11-2010 08:45:00;18,10
14-11-2010 09:00:00;18,10
14-11-2010 09:15:00;18,30
14-11-2010 09:30:00;18,10
14-11-2010 09:45:00;18,20
14-11-2010 10:00:00;18,20
14-11-2010 10:15:00;18,10
14-11-2010 10:30:00;18,00
14-11-2010 10:45:00;17,90
14-11-2010 11:00:00;18,00
14-11-2010 11:15:00;17,90
14-11-2010 11:30:00;17,90
14-11-2010 11:45:00;17,90
14-11-2010 12:00:00;17,90
14-11-2010 12:15:00;17,90
14-11-2010 12:30:00;18,10
14-11-2010 12:45:00;17,90
14-11-2010 13:00:00;18,00
14-11-2010 13:15:00;17,60
14-11-2010 13:30:00;18,00
14-11-2010 13:45:00;18,20
14-11-2010 14:00:00;18,20
14-11-2010 14:15:00;18,10
14-11-2010 14:30:00;17,90
14-11-2010 14:45:00;17,50
14-11-2010 15:00:00;17,50
14-11-2010 15:15:00;17,80
14-11-2010 15:30:00;17,90
14-11-2010 15:45:00;17,80
14-11-2010 16:00:00;17,80
14-11-2010 16:15:00;17,80
14-11-2010 16:30:00;18,00
14-11-2010 16:45:00;17,90
14-11-2010 17:00:00;17,90
14-11-2010 17:15:00;17,90
14-11-2010 17:30:00;18,10
14-11-2010 17:45:00;18,20
14-11-2010 18:00:00;18,20
14-11-2010 18:15:00;18,30
14-11-2010 18:30:00;18,20
14-11-2010 18:45:00;18,40
14-11-2010 19:00:00;18,50
14-11-2010 19:15:00;18,40
14-11-2010 19:30:00;18,40
14-11-2010 19:45:00;18,50
14-11-2010 20:00:00;18,50
14-11-2010 20:15:00;18,50
14-11-2010 20:30:00;18,50
14-11-2010 20:45:00;18,60
14-11-2010 21:00:00;18,80
14-11-2010 21:15:00;18,80
14-11-2010 21:30:00;18,80
14-11-2010 21:45:00;18,90
14-11-2010 22:00:00;19,00
14-11-2010 22:15:00;18,90
14-11-2010 22:30:00;19,10
14-11-2010 22:45:00;19,20
14-11-2010 23:00:00;19,00
14-11-2010 23:15:00;19,10
14-11-2010 23:30:00;19,20
15-11-2010 00:00:00;19,20
15-11-2010 00:15:00;19,20
15-11-2010 00:30:00;19,20
15-11-2010 00:45:00;19,30
15-11-2010 01:00:00;19,30
15-11-2010 01:15:00;19,40
15-11-2010 01:30:00;19,30
15-11-2010 01:45:00;19,40
15-11-2010 02:00:00;19,50
15-11-2010 02:15:00;19,50
15-11-2010 02:30:00;19,50
15-11-2010 02:45:00;19,50
15-11-2010 03:00:00;19,60
15-11-2010 03:15:00;19,50
15-11-2010 03:30:00;19,60
15-11-2010 03:45:00;19,60
15-11-2010 04:00:00;19,70
15-11-2010 04:15:00;19,80
15-11-2010 04:30:00;19,80
15-11-2010 04:45:00;19,80
15-11-2010 05:00:00;19,80
15-11-2010 05:15:00;19,70
15-11-2010 05:30:00;19,70
15-11-2010 05:45:00;19,70
15-11-2010 06:00:00;19,80
15-11-2010 06:15:00;19,60
15-11-2010 06:30:00;19,70
15-11-2010 06:45:00;19,70
15-11-2010 07:00:00;19,70
15-11-2010 07:15:00;19,70
15-11-2010 07:30:00;19,80
15-11-2010 07:45:00;19,80
15-11-2010 08:00:00;19,70
15-11-2010 08:15:00;19,60
15-11-2010 08:30:00;19,40
15-11-2010 08:45:00;19,30
15-11-2010 09:00:00;19,10
15-11-2010 09:15:00;19,20
15-11-2010 09:30:00;19,10
15-11-2010 09:45:00;19,10
15-11-2010 10:00:00;19,20
15-11-2010 10:15:00;19,20
15-11-2010 10:30:00;19,10
15-11-2010 10:45:00;19,20
15-11-2010 11:00:00;19,20
15-11-2010 11:15:00;19,10
15-11-2010 11:30:00;19,00
15-11-2010 11:45:00;19,00
15-11-2010 12:00:00;19,00
15-11-2010 12:15:00;19,10
15-11-2010 12:30:00;19,20
15-11-2010 12:45:00;19,20
15-11-2010 13:00:00;19,20
15-11-2010 13:15:00;19,10
15-11-2010 13:30:00;19,10
15-11-2010 13:45:00;19,20
15-11-2010 14:00:00;19,30
15-11-2010 14:15:00;19,30
15-11-2010 14:30:00;19,40
15-11-2010 14:45:00;18,90
15-11-2010 15:00:00;18,80
15-11-2010 15:15:00;19,00
15-11-2010 15:30:00;19,10
15-11-2010 15:45:00;19,20
15-11-2010 16:00:00;19,00
15-11-2010 16:15:00;19,20
15-11-2010 16:30:00;19,30
15-11-2010 16:45:00;19,40
15-11-2010 17:00:00;19,40
15-11-2010 17:15:00;19,50
15-11-2010 17:30:00;19,70
15-11-2010 17:45:00;19,80
15-11-2010 18:00:00;19,60
15-11-2010 18:15:00;19,80
15-11-2010 18:30:00;19,90
15-11-2010 18:45:00;19,90
15-11-2010 19:00:00;20,00
15-11-2010 19:15:00;20,00
15-11-2010 19:30:00;20,00
15-11-2010 19:45:00;20,00
15-11-2010 20:00:00;20,00
15-11-2010 20:15:00;20,00
15-11-2010 20:30:00;20,10
15-11-2010 20:45:00;20,20
15-11-2010 21:00:00;20,10
15-11-2010 21:15:00;20,10
15-11-2010 21:30:00;20,10
15-11-2010 21:45:00;20,30
15-11-2010 22:00:00;20,30
15-11-2010 22:15:00;20,20
15-11-2010 22:30:00;20,40
15-11-2010 22:45:00;20,50
15-11-2010 23:00:00;20,30
15-11-2010 23:15:00;20,40
15-11-2010 23:30:00;20,40
15-11-2010 23:45:00;20,30
16-11-2010 00:00:00;20,20
16-11-2010 00:15:00;20,10
16-11-2010 00:30:00;20,20
16-11-2010 00:45:00;20,20
16-11-2010 01:00:00;20,10
16-11-2010 01:15:00;20,20
16-11-2010 01:30:00;20,20
16-11-2010 01:45:00;20,30
16-11-2010 02:00:00;20,40
16-11-2010 02:15:00;20,40
16-11-2010 02:30:00;20,20
16-11-2010 02:45:00;20,30
16-11-2010 03:00:00;20,20
16-11-2010 03:15:00;20,10
16-11-2010 03:30:00;20,20
16-11-2010 03:45:00;20,10
16-11-2010 04:00:00;20,00
16-11-2010 04:15:00;20,00
16-11-2010 04:30:00;20,00
16-11-2010 04:45:00;19,80
16-11-2010 05:00:00;19,90
16-11-2010 05:15:00;20,00
16-11-2010 05:30:00;19,90
16-11-2010 05:45:00;19,80
16-11-2010 06:00:00;19,90
16-11-2010 06:15:00;19,90
16-11-2010 06:30:00;19,80
16-11-2010 06:45:00;19,80
16-11-2010 07:00:00;19,80
16-11-2010 07:15:00;19,90
16-11-2010 07:30:00;19,90
16-11-2010 07:45:00;19,80
16-11-2010 08:00:00;19,80
16-11-2010 08:15:00;19,60
16-11-2010 08:30:00;19,60
16-11-2010 08:45:00;19,40
16-11-2010 09:00:00;19,40
16-11-2010 09:15:00;19,30
16-11-2010 09:30:00;19,30
16-11-2010 09:45:00;19,40
16-11-2010 10:00:00;19,40
16-11-2010 10:15:00;19,40
16-11-2010 10:30:00;19,40
16-11-2010 10:45:00;19,60
16-11-2010 11:00:00;19,60
16-11-2010 11:15:00;19,40
16-11-2010 11:30:00;19,50
16-11-2010 11:45:00;19,60
16-11-2010 12:00:00;19,70
16-11-2010 12:15:00;19,70
16-11-2010 12:30:00;19,80
16-11-2010 12:45:00;19,80
16-11-2010 13:00:00;19,80
16-11-2010 13:15:00;19,60
16-11-2010 13:30:00;19,50
16-11-2010 13:45:00;19,40
16-11-2010 14:00:00;19,40
16-11-2010 14:15:00;19,50
16-11-2010 14:30:00;19,50
16-11-2010 14:45:00;19,20
16-11-2010 15:00:00;19,00
16-11-2010 15:15:00;19,20
16-11-2010 15:30:00;19,30
16-11-2010 15:45:00;19,40
16-11-2010 16:00:00;19,40
16-11-2010 16:15:00;19,60
16-11-2010 16:30:00;19,60
16-11-2010 16:45:00;19,70
16-11-2010 17:00:00;19,80
16-11-2010 17:15:00;19,80
16-11-2010 17:30:00;19,80
16-11-2010 17:45:00;19,90
16-11-2010 18:00:00;19,90
16-11-2010 18:15:00;20,00
16-11-2010 18:30:00;20,00
16-11-2010 18:45:00;20,20
16-11-2010 19:00:00;20,20
16-11-2010 19:15:00;20,40
16-11-2010 19:30:00;20,50
16-11-2010 19:45:00;20,60
16-11-2010 20:00:00;20,50
16-11-2010 20:15:00;20,60
16-11-2010 20:30:00;20,80
16-11-2010 20:45:00;20,70
16-11-2010 21:00:00;20,90
16-11-2010 21:15:00;20,80
16-11-2010 21:30:00;20,80
16-11-2010 21:45:00;20,80
16-11-2010 22:00:00;20,70
16-11-2010 22:15:00;20,80
16-11-2010 22:30:00;21,00
16-11-2010 22:45:00;20,90
16-11-2010 23:00:00;20,90
16-11-2010 23:15:00;20,80
16-11-2010 23:30:00;20,80
16-11-2010 23:45:00;20,80
17-11-2010 00:00:00;20,80
17-11-2010 00:15:00;21,10
17-11-2010 00:30:00;21,00
17-11-2010 00:45:00;20,90
17-11-2010 01:00:00;20,70
17-11-2010 01:15:00;20,80
17-11-2010 01:30:00;20,80
17-11-2010 01:45:00;20,70
17-11-2010 02:00:00;20,80
17-11-2010 02:15:00;20,80
17-11-2010 02:30:00;20,70
17-11-2010 02:45:00;20,70
17-11-2010 03:00:00;20,80
17-11-2010 03:15:00;20,80
17-11-2010 03:30:00;20,80
17-11-2010 03:45:00;20,70
17-11-2010 04:00:00;20,50
17-11-2010 04:15:00;20,50
17-11-2010 04:30:00;20,50
17-11-2010 04:45:00;20,50
17-11-2010 05:00:00;20,40
17-11-2010 05:15:00;20,30
17-11-2010 05:30:00;20,50
17-11-2010 05:45:00;20,40
17-11-2010 06:00:00;20,20
17-11-2010 06:15:00;20,20
17-11-2010 06:30:00;20,50
17-11-2010 06:45:00;20,30
17-11-2010 07:00:00;20,20
17-11-2010 07:15:00;20,20
17-11-2010 07:30:00;20,40
17-11-2010 07:45:00;20,30
17-11-2010 08:00:00;20,10
17-11-2010 08:15:00;20,00
17-11-2010 08:30:00;20,20
17-11-2010 08:45:00;20,00
17-11-2010 09:00:00;20,00
17-11-2010 09:15:00;19,90
17-11-2010 09:30:00;20,10
17-11-2010 09:45:00;19,90
17-11-2010 10:00:00;19,80
17-11-2010 10:15:00;19,80
17-11-2010 10:30:00;20,20
17-11-2010 10:45:00;20,00
17-11-2010 11:15:00;20,00
17-11-2010 11:30:00;20,00
17-11-2010 11:45:00;19,90
17-11-2010 12:00:00;20,00
17-11-2010 12:15:00;20,00
17-11-2010 12:30:00;20,00
17-11-2010 12:45:00;19,90
17-11-2010 13:00:00;20,00
17-11-2010 13:15:00;20,00
17-11-2010 13:30:00;20,00
17-11-2010 13:45:00;19,90
17-11-2010 14:00:00;20,10
17-11-2010 14:15:00;20,10
17-11-2010 14:30:00;20,10
17-11-2010 14:45:00;19,40
17-11-2010 15:00:00;19,30
17-11-2010 15:15:00;19,40
17-11-2010 15:30:00;19,70
17-11-2010 15:45:00;19,90
17-11-2010 16:00:00;20,00
17-11-2010 16:15:00;20,60
17-11-2010 16:30:00;21,70
17-11-2010 16:45:00;22,30
17-11-2010 17:00:00;22,50
17-11-2010 17:15:00;23,00
17-11-2010 17:30:00;23,30
17-11-2010 17:45:00;23,30
17-11-2010 18:00:00;23,50
17-11-2010 18:15:00;23,50
17-11-2010 18:30:00;23,50
17-11-2010 18:45:00;23,40
17-11-2010 19:00:00;23,30
17-11-2010 19:15:00;23,20
17-11-2010 19:30:00;22,90
17-11-2010 19:45:00;22,80
17-11-2010 20:00:00;22,50
17-11-2010 20:15:00;22,30
17-11-2010 20:30:00;22,20
17-11-2010 20:45:00;21,90
17-11-2010 21:00:00;21,80
17-11-2010 21:15:00;21,60
17-11-2010 21:30:00;21,60
17-11-2010 21:45:00;21,40
17-11-2010 22:00:00;21,60
17-11-2010 22:15:00;21,50
17-11-2010 22:30:00;21,40
17-11-2010 22:45:00;21,30
17-11-2010 23:00:00;21,30
17-11-2010 23:15:00;21,50
17-11-2010 23:30:00;21,50
17-11-2010 23:45:00;21,40
18-11-2010 00:00:00;21,40
18-11-2010 00:15:00;21,30
18-11-2010 00:30:00;21,30
18-11-2010 00:45:00;21,30
18-11-2010 01:00:00;21,40
18-11-2010 01:15:00;21,40
18-11-2010 01:30:00;21,40
18-11-2010 01:45:00;21,40
18-11-2010 02:00:00;21,30
18-11-2010 02:15:00;21,30
18-11-2010 02:30:00;21,30
18-11-2010 02:45:00;21,50
18-11-2010 03:00:00;21,40
18-11-2010 03:15:00;21,30
18-11-2010 03:30:00;21,30
18-11-2010 03:45:00;21,20
18-11-2010 04:00:00;21,00
18-11-2010 04:15:00;21,10
18-11-2010 04:30:00;21,00
18-11-2010 04:45:00;21,00
18-11-2010 05:00:00;20,90
18-11-2010 05:15:00;20,90
18-11-2010 05:30:00;20,90
18-11-2010 05:45:00;21,00
18-11-2010 06:00:00;21,00
18-11-2010 06:15:00;21,00
18-11-2010 06:30:00;20,90
18-11-2010 06:45:00;20,80
18-11-2010 07:00:00;21,00
18-11-2010 07:15:00;20,80
18-11-2010 07:30:00;20,80
18-11-2010 07:45:00;20,90
18-11-2010 08:00:00;20,80
18-11-2010 08:15:00;20,80
18-11-2010 08:30:00;20,80
18-11-2010 08:45:00;20,70
18-11-2010 09:00:00;20,60
18-11-2010 09:15:00;20,60
18-11-2010 09:30:00;20,50
18-11-2010 09:45:00;20,50
18-11-2010 10:00:00;20,50
18-11-2010 10:15:00;20,50
18-11-2010 10:30:00;20,40
18-11-2010 10:45:00;20,60
18-11-2010 11:00:00;20,60
18-11-2010 11:15:00;20,50
18-11-2010 11:30:00;20,50
18-11-2010 13:00:00;11,60
18-11-2010 13:15:00;11,50
18-11-2010 13:30:00;11,40
18-11-2010 13:45:00;11,40
18-11-2010 14:00:00;11,30
18-11-2010 14:15:00;11,30
18-11-2010 14:30:00;11,50
18-11-2010 14:45:00;11,40
18-11-2010 15:00:00;11,60
18-11-2010 15:15:00;11,60
18-11-2010 15:30:00;11,60
18-11-2010 15:45:00;11,70
18-11-2010 16:00:00;11,80
18-11-2010 16:30:00;11,60
18-11-2010 16:45:00;11,80
18-11-2010 17:00:00;11,80
18-11-2010 17:15:00;11,90
18-11-2010 17:30:00;12,00
18-11-2010 17:45:00;12,10
18-11-2010 18:00:00;12,20
18-11-2010 18:15:00;12,20
18-11-2010 18:30:00;12,30
18-11-2010 18:45:00;12,50
18-11-2010 19:00:00;12,40
18-11-2010 19:15:00;12,50
18-11-2010 19:30:00;12,50
18-11-2010 19:45:00;12,60
18-11-2010 20:00:00;12,80
18-11-2010 20:15:00;12,90
18-11-2010 20:30:00;12,80
18-11-2010 20:45:00;12,90
18-11-2010 21:00:00;12,90
18-11-2010 21:15:00;13,00
18-11-2010 21:30:00;13,00
18-11-2010 21:45:00;12,90
18-11-2010 22:00:00;12,90
18-11-2010 22:15:00;13,00
18-11-2010 22:30:00;13,10
18-11-2010 22:45:00;13,10
18-11-2010 23:00:00;13,00
18-11-2010 23:15:00;13,00
18-11-2010 23:30:00;13,00
18-11-2010 23:45:00;12,90
19-11-2010 00:00:00;12,90
19-11-2010 00:15:00;12,90
19-11-2010 00:30:00;12,90
19-11-2010 00:45:00;12,90
19-11-2010 01:00:00;12,80
19-11-2010 01:15:00;12,90
19-11-2010 01:30:00;12,90
19-11-2010 01:45:00;12,70
19-11-2010 02:00:00;12,80
19-11-2010 02:15:00;12,90
19-11-2010 02:30:00;12,80
19-11-2010 02:45:00;12,70
19-11-2010 03:00:00;12,70
19-11-2010 03:15:00;12,70
19-11-2010 03:30:00;12,70
19-11-2010 03:45:00;12,70
19-11-2010 04:00:00;12,60
19-11-2010 04:15:00;12,60
19-11-2010 04:30:00;12,60
19-11-2010 04:45:00;12,50
19-11-2010 05:00:00;12,50
19-11-2010 05:15:00;12,50
19-11-2010 05:30:00;12,60
19-11-2010 05:45:00;12,50
19-11-2010 06:00:00;12,40
19-11-2010 06:15:00;12,50
19-11-2010 06:30:00;12,40
19-11-2010 06:45:00;12,40
19-11-2010 07:00:00;12,40
19-11-2010 07:15:00;12,40
19-11-2010 07:30:00;12,40
19-11-2010 07:45:00;12,40
19-11-2010 08:00:00;12,20
19-11-2010 08:15:00;12,20
19-11-2010 08:30:00;12,10
19-11-2010 08:45:00;12,10
19-11-2010 09:00:00;12,00
19-11-2010 09:15:00;12,10
19-11-2010 09:30:00;12,00
19-11-2010 09:45:00;12,00
19-11-2010 10:00:00;12,10
19-11-2010 10:15:00;12,00
19-11-2010 10:30:00;12,00
19-11-2010 10:45:00;12,00
19-11-2010 11:00:00;12,00
19-11-2010 11:15:00;11,90
19-11-2010 11:30:00;11,90
19-11-2010 11:45:00;11,90
19-11-2010 12:00:00;11,90
19-11-2010 12:15:00;11,40
19-11-2010 12:30:00;11,20
19-11-2010 12:45:00;11,40
19-11-2010 13:00:00;11,40
19-11-2010 13:15:00;11,40
19-11-2010 13:30:00;11,40
19-11-2010 13:45:00;11,40
19-11-2010 14:00:00;11,40
19-11-2010 14:15:00;11,50
19-11-2010 14:30:00;11,50
19-11-2010 14:45:00;11,60
19-11-2010 15:00:00;11,60
19-11-2010 15:15:00;11,60
19-11-2010 15:30:00;11,60
19-11-2010 15:45:00;11,60
19-11-2010 16:00:00;11,70
19-11-2010 16:15:00;11,80
19-11-2010 16:30:00;11,80
19-11-2010 16:45:00;11,70
19-11-2010 17:00:00;11,60
19-11-2010 17:15:00;11,70
19-11-2010 17:30:00;11,80
19-11-2010 17:45:00;11,90
19-11-2010 18:00:00;12,00
19-11-2010 18:15:00;12,00
19-11-2010 18:30:00;12,00
19-11-2010 18:45:00;12,00
19-11-2010 19:00:00;12,10
19-11-2010 19:15:00;12,20
19-11-2010 19:30:00;12,20
19-11-2010 19:45:00;12,20
19-11-2010 20:00:00;12,40
19-11-2010 20:15:00;12,20
19-11-2010 20:30:00;12,40
19-11-2010 20:45:00;12,40
19-11-2010 21:00:00;12,40
19-11-2010 21:15:00;12,40
19-11-2010 21:30:00;12,50
19-11-2010 21:45:00;12,50
19-11-2010 22:00:00;12,50
19-11-2010 22:15:00;12,50
19-11-2010 22:30:00;12,50
19-11-2010 22:45:00;12,60
19-11-2010 23:00:00;12,60
19-11-2010 23:15:00;12,50
19-11-2010 23:30:00;12,60
19-11-2010 23:45:00;12,60
20-11-2010 00:00:00;12,50
20-11-2010 00:15:00;12,50
20-11-2010 00:30:00;12,60
20-11-2010 00:45:00;12,60
20-11-2010 01:00:00;12,50
20-11-2010 01:15:00;12,50
20-11-2010 01:30:00;12,70
20-11-2010 01:45:00;12,60
20-11-2010 02:00:00;12,50
20-11-2010 02:15:00;12,50
20-11-2010 02:30:00;12,50
20-11-2010 02:45:00;12,50
20-11-2010 03:00:00;12,50
20-11-2010 03:15:00;12,60
20-11-2010 03:30:00;12,50
20-11-2010 03:45:00;12,50
20-11-2010 04:00:00;12,50
20-11-2010 04:15:00;12,60
20-11-2010 04:30:00;12,60
20-11-2010 04:45:00;12,50
20-11-2010 05:00:00;12,50
20-11-2010 05:15:00;12,60
20-11-2010 05:30:00;12,60
20-11-2010 05:45:00;12,60
20-11-2010 06:00:00;12,60
20-11-2010 06:15:00;12,60
20-11-2010 06:30:00;12,60
20-11-2010 06:45:00;12,70
20-11-2010 07:00:00;12,60
20-11-2010 07:15:00;12,60
20-11-2010 07:30:00;12,60
20-11-2010 07:45:00;12,60
20-11-2010 08:00:00;12,70
20-11-2010 08:15:00;12,60
20-11-2010 08:30:00;12,70
20-11-2010 08:45:00;12,60
20-11-2010 09:00:00;12,60
20-11-2010 09:15:00;12,60
20-11-2010 09:30:00;12,60
20-11-2010 09:45:00;12,60
20-11-2010 10:00:00;12,50
20-11-2010 10:15:00;12,40
20-11-2010 10:30:00;12,50
20-11-2010 10:45:00;12,50
20-11-2010 11:00:00;12,40
20-11-2010 11:15:00;12,50
20-11-2010 11:30:00;12,50
20-11-2010 11:45:00;12,50
20-11-2010 12:00:00;12,50
20-11-2010 12:15:00;12,10
20-11-2010 12:30:00;11,90
20-11-2010 12:45:00;12,00
20-11-2010 13:00:00;12,10
20-11-2010 13:15:00;12,20
20-11-2010 13:30:00;12,20
20-11-2010 13:45:00;12,20
20-11-2010 14:00:00;12,20
20-11-2010 14:15:00;12,20
20-11-2010 14:30:00;12,30
20-11-2010 14:45:00;12,40
20-11-2010 15:00:00;12,40
20-11-2010 15:15:00;12,40
20-11-2010 15:30:00;12,50
20-11-2010 15:45:00;12,50
20-11-2010 16:00:00;12,60
20-11-2010 16:15:00;12,70
20-11-2010 16:30:00;12,80
20-11-2010 16:45:00;12,70
20-11-2010 17:00:00;12,90
20-11-2010 17:15:00;12,90
20-11-2010 17:30:00;13,00
20-11-2010 17:45:00;13,20
20-11-2010 18:00:00;13,40
20-11-2010 18:15:00;13,50
20-11-2010 18:30:00;13,80
20-11-2010 18:45:00;14,00
20-11-2010 19:00:00;14,00
20-11-2010 19:15:00;14,10
20-11-2010 19:30:00;14,10
20-11-2010 19:45:00;14,20
20-11-2010 20:00:00;14,10
20-11-2010 20:15:00;14,10
20-11-2010 20:30:00;14,20
20-11-2010 20:45:00;14,10
20-11-2010 21:00:00;14,10
20-11-2010 21:15:00;14,10
20-11-2010 21:30:00;14,10
20-11-2010 21:45:00;14,10
20-11-2010 22:00:00;14,00
20-11-2010 22:15:00;14,10
20-11-2010 22:30:00;14,00
20-11-2010 22:45:00;14,20
20-11-2010 23:00:00;14,20
20-11-2010 23:15:00;14,10
20-11-2010 23:30:00;14,00
20-11-2010 23:45:00;14,00
21-11-2010 00:00:00;14,00
21-11-2010 00:15:00;14,00
21-11-2010 00:30:00;13,80
21-11-2010 00:45:00;13,80
21-11-2010 01:00:00;13,80
21-11-2010 01:15:00;13,70
21-11-2010 01:30:00;13,80
21-11-2010 01:45:00;13,70
21-11-2010 02:00:00;13,80
21-11-2010 02:15:00;13,60
21-11-2010 02:30:00;13,50
21-11-2010 02:45:00;13,60
21-11-2010 03:00:00;13,50
21-11-2010 03:15:00;13,50
21-11-2010 03:45:00;13,50
21-11-2010 04:00:00;13,30
21-11-2010 04:15:00;13,50
21-11-2010 04:30:00;13,30
21-11-2010 04:45:00;13,30
21-11-2010 05:00:00;13,30
21-11-2010 05:15:00;13,50
21-11-2010 05:30:00;13,30
21-11-2010 05:45:00;13,50
21-11-2010 06:00:00;13,50
21-11-2010 06:15:00;13,40
21-11-2010 06:30:00;13,40
21-11-2010 06:45:00;13,50
21-11-2010 07:00:00;13,30
21-11-2010 07:15:00;13,50
21-11-2010 07:30:00;13,50
21-11-2010 07:45:00;13,50
21-11-2010 08:00:00;13,50
21-11-2010 08:15:00;13,50
21-11-2010 08:30:00;13,40
21-11-2010 08:45:00;13,40
21-11-2010 09:00:00;13,30
21-11-2010 09:15:00;13,30
21-11-2010 09:30:00;13,30
21-11-2010 09:45:00;13,30
21-11-2010 10:00:00;13,30
21-11-2010 10:15:00;13,30
21-11-2010 10:30:00;13,30
21-11-2010 10:45:00;13,30
21-11-2010 11:00:00;13,30
21-11-2010 11:15:00;13,30
21-11-2010 11:30:00;13,30
21-11-2010 11:45:00;13,30
21-11-2010 12:00:00;13,30
21-11-2010 12:15:00;12,60
21-11-2010 12:30:00;12,50
21-11-2010 12:45:00;12,70
21-11-2010 13:00:00;12,70
21-11-2010 13:15:00;13,00
21-11-2010 13:30:00;13,00
21-11-2010 13:45:00;12,90
21-11-2010 14:00:00;13,00
21-11-2010 14:15:00;13,00
21-11-2010 14:30:00;13,00
21-11-2010 14:45:00;13,10
21-11-2010 15:00:00;13,20
21-11-2010 15:15:00;13,20
21-11-2010 15:30:00;13,20
21-11-2010 15:45:00;13,30
21-11-2010 16:00:00;13,30
21-11-2010 16:15:00;13,40
21-11-2010 16:30:00;13,50
21-11-2010 16:45:00;13,50
21-11-2010 17:00:00;13,60
21-11-2010 17:15:00;13,60
21-11-2010 17:30:00;13,80
21-11-2010 17:45:00;14,00
21-11-2010 18:00:00;14,00
21-11-2010 18:15:00;14,00
21-11-2010 18:30:00;14,00
21-11-2010 18:45:00;14,10
21-11-2010 19:00:00;14,10
21-11-2010 19:15:00;14,10
21-11-2010 19:30:00;14,30
21-11-2010 19:45:00;14,40
21-11-2010 20:00:00;14,30
21-11-2010 20:15:00;14,50
21-11-2010 20:30:00;14,50
21-11-2010 20:45:00;14,40
21-11-2010 21:00:00;14,40
21-11-2010 21:15:00;14,50
21-11-2010 21:30:00;14,40
21-11-2010 21:45:00;14,50
21-11-2010 22:00:00;14,40
21-11-2010 22:15:00;14,40
21-11-2010 22:30:00;14,40
21-11-2010 22:45:00;14,40
21-11-2010 23:00:00;14,40
21-11-2010 23:15:00;14,50
21-11-2010 23:30:00;14,40
21-11-2010 23:45:00;14,30
22-11-2010 00:00:00;14,50
22-11-2010 00:15:00;14,40
22-11-2010 00:30:00;14,40
22-11-2010 00:45:00;14,40
22-11-2010 01:00:00;14,30
22-11-2010 01:15:00;14,40
22-11-2010 01:30:00;14,40
22-11-2010 01:45:00;14,40
22-11-2010 02:00:00;14,40
22-11-2010 02:15:00;14,40
22-11-2010 02:30:00;14,30
22-11-2010 02:45:00;14,40
22-11-2010 03:00:00;14,30
22-11-2010 03:15:00;14,30
22-11-2010 03:30:00;14,30
22-11-2010 03:45:00;14,10
22-11-2010 04:00:00;14,10
22-11-2010 04:15:00;14,10
22-11-2010 04:30:00;14,10
22-11-2010 04:45:00;14,10
22-11-2010 05:00:00;14,20
22-11-2010 05:15:00;14,10
22-11-2010 05:30:00;14,10
22-11-2010 05:45:00;14,10
22-11-2010 06:00:00;14,20
22-11-2010 06:15:00;14,10
22-11-2010 06:30:00;14,20
22-11-2010 06:45:00;14,10
22-11-2010 07:00:00;14,10
22-11-2010 07:15:00;14,10
22-11-2010 07:30:00;14,30
22-11-2010 07:45:00;14,30
22-11-2010 08:00:00;14,10
22-11-2010 08:15:00;14,10
22-11-2010 08:30:00;14,10
22-11-2010 08:45:00;14,10
22-11-2010 09:00:00;14,00
22-11-2010 09:15:00;14,00
22-11-2010 09:30:00;14,00
22-11-2010 09:45:00;14,00
22-11-2010 10:00:00;14,00
22-11-2010 10:15:00;14,00
22-11-2010 10:30:00;14,00
22-11-2010 10:45:00;14,00
22-11-2010 11:00:00;14,00
22-11-2010 11:15:00;14,00
22-11-2010 11:30:00;14,00
22-11-2010 11:45:00;14,00
22-11-2010 12:00:00;14,00
22-11-2010 12:15:00;13,00
22-11-2010 12:30:00;12,80
22-11-2010 12:45:00;13,00
22-11-2010 13:00:00;13,00
22-11-2010 13:15:00;12,90
22-11-2010 13:30:00;13,10
22-11-2010 13:45:00;13,10
22-11-2010 14:00:00;13,10
22-11-2010 14:15:00;13,10
22-11-2010 14:30:00;13,20
22-11-2010 14:45:00;13,20
22-11-2010 15:00:00;13,10
22-11-2010 15:15:00;13,10
22-11-2010 15:30:00;13,10
22-11-2010 15:45:00;13,10
22-11-2010 16:00:00;13,20
22-11-2010 16:15:00;13,30
22-11-2010 16:30:00;13,30
22-11-2010 16:45:00;13,30
22-11-2010 17:00:00;13,30
22-11-2010 17:15:00;13,50
22-11-2010 17:30:00;13,50
22-11-2010 17:45:00;13,50
22-11-2010 18:00:00;13,50
22-11-2010 18:15:00;13,60
22-11-2010 18:30:00;13,80
22-11-2010 18:45:00;14,00
22-11-2010 19:00:00;14,00
22-11-2010 19:15:00;14,00
22-11-2010 19:30:00;14,10
22-11-2010 19:45:00;14,10
22-11-2010 20:00:00;14,00
22-11-2010 20:15:00;14,20
22-11-2010 20:30:00;14,20
22-11-2010 20:45:00;14,30
22-11-2010 21:00:00;14,30
22-11-2010 21:15:00;14,40
22-11-2010 21:30:00;14,40
22-11-2010 21:45:00;14,40
22-11-2010 22:00:00;14,40
22-11-2010 22:15:00;14,60
22-11-2010 22:30:00;14,60
22-11-2010 22:45:00;14,60
22-11-2010 23:00:00;14,60
22-11-2010 23:15:00;14,40
22-11-2010 23:30:00;14,50
22-11-2010 23:45:00;14,40
23-11-2010 00:00:00;14,40
23-11-2010 00:15:00;14,50
23-11-2010 00:30:00;14,40
23-11-2010 00:45:00;14,40
23-11-2010 01:00:00;14,40
23-11-2010 01:15:00;14,40
23-11-2010 01:30:00;14,40
23-11-2010 01:45:00;14,50
23-11-2010 02:00:00;14,40
23-11-2010 02:15:00;14,40
23-11-2010 02:30:00;14,40
23-11-2010 02:45:00;14,40
23-11-2010 03:00:00;14,40
23-11-2010 03:15:00;14,40
23-11-2010 03:30:00;14,50
23-11-2010 03:45:00;14,50
23-11-2010 04:00:00;14,50
23-11-2010 04:15:00;14,40
23-11-2010 04:30:00;14,40
23-11-2010 04:45:00;14,60
23-11-2010 05:00:00;14,60
23-11-2010 05:15:00;14,60
23-11-2010 05:30:00;14,60
23-11-2010 05:45:00;14,60
23-11-2010 06:00:00;14,60
23-11-2010 06:15:00;14,50
23-11-2010 06:30:00;14,60
23-11-2010 06:45:00;14,40
23-11-2010 07:00:00;14,50
23-11-2010 07:15:00;14,60
23-11-2010 07:30:00;14,60
23-11-2010 07:45:00;14,60
23-11-2010 08:00:00;14,80
23-11-2010 08:15:00;14,50
23-11-2010 08:30:00;14,50
23-11-2010 08:45:00;14,40
23-11-2010 09:00:00;14,40
23-11-2010 09:15:00;14,40
23-11-2010 09:30:00;14,40
23-11-2010 09:45:00;14,40
23-11-2010 10:00:00;14,40
23-11-2010 10:15:00;14,40
23-11-2010 10:30:00;14,40
23-11-2010 10:45:00;14,40
23-11-2010 11:00:00;14,50
23-11-2010 11:15:00;14,60
23-11-2010 11:30:00;14,60
23-11-2010 11:45:00;14,70
23-11-2010 12:00:00;14,70
23-11-2010 12:15:00;13,90
23-11-2010 12:30:00;13,80
23-11-2010 12:45:00;14,00
23-11-2010 13:00:00;14,10
23-11-2010 13:15:00;14,10
23-11-2010 13:30:00;14,40
23-11-2010 13:45:00;14,60
23-11-2010 14:00:00;14,70
23-11-2010 14:15:00;14,90
23-11-2010 14:30:00;14,90
23-11-2010 14:45:00;15,40
23-11-2010 15:00:00;15,90
23-11-2010 15:15:00;15,90
23-11-2010 15:30:00;16,20
23-11-2010 15:45:00;16,20
23-11-2010 16:00:00;16,90
23-11-2010 16:15:00;16,90
23-11-2010 16:30:00;17,60
23-11-2010 16:45:00;17,30
23-11-2010 17:00:00;17,90
23-11-2010 17:15:00;17,70
23-11-2010 17:30:00;18,30
23-11-2010 17:45:00;18,20
23-11-2010 18:00:00;18,90
23-11-2010 18:15:00;18,70
23-11-2010 18:30:00;19,40
23-11-2010 18:45:00;19,70
23-11-2010 19:00:00;19,30
23-11-2010 19:15:00;19,30
23-11-2010 19:30:00;20,00
23-11-2010 19:45:00;21,20
23-11-2010 20:00:00;21,80
23-11-2010 20:15:00;20,80
23-11-2010 20:30:00;21,40
23-11-2010 20:45:00;22,40
23-11-2010 21:00:00;22,90
23-11-2010 21:15:00;22,60
23-11-2010 21:30:00;22,60
23-11-2010 21:45:00;23,20
23-11-2010 22:00:00;23,20
23-11-2010 22:15:00;23,70
23-11-2010 22:30:00;23,60
23-11-2010 22:45:00;23,70
23-11-2010 23:00:00;23,90
23-11-2010 23:15:00;25,20
23-11-2010 23:30:00;24,70
23-11-2010 23:45:00;25,20
24-11-2010 22:15:00;32,20
24-11-2010 22:30:00;32,50
24-11-2010 22:45:00;33,20
24-11-2010 23:00:00;32,80
24-11-2010 23:15:00;32,50
24-11-2010 23:30:00;31,80
24-11-2010 23:45:00;31,60
25-11-2010 00:00:00;31,40
25-11-2010 00:15:00;31,60
25-11-2010 00:30:00;31,10
25-11-2010 00:45:00;31,10
25-11-2010 01:00:00;30,70
25-11-2010 01:15:00;30,60
25-11-2010 01:30:00;29,90
25-11-2010 01:45:00;30,20
25-11-2010 02:00:00;30,20
25-11-2010 02:15:00;30,50
25-11-2010 02:30:00;30,20
25-11-2010 02:45:00;30,20
25-11-2010 03:00:00;29,80
25-11-2010 03:15:00;29,60
25-11-2010 03:30:00;29,30
25-11-2010 03:45:00;29,10
25-11-2010 04:00:00;29,10
25-11-2010 04:15:00;28,90
25-11-2010 04:30:00;28,70
25-11-2010 04:45:00;28,30
25-11-2010 05:00:00;28,00
25-11-2010 05:15:00;29,20
25-11-2010 05:30:00;28,40
25-11-2010 05:45:00;27,80
25-11-2010 06:00:00;27,50
25-11-2010 06:15:00;27,30
25-11-2010 06:30:00;27,30
25-11-2010 06:45:00;27,00
25-11-2010 07:00:00;26,70
25-11-2010 07:15:00;27,00
25-11-2010 07:30:00;26,80
25-11-2010 07:45:00;26,40
25-11-2010 08:00:00;26,30
25-11-2010 08:15:00;26,20
25-11-2010 08:30:00;25,90
25-11-2010 08:45:00;25,60
25-11-2010 09:00:00;25,70
25-11-2010 09:15:00;25,70
25-11-2010 09:30:00;25,20
25-11-2010 09:45:00;25,30
25-11-2010 12:15:00;18,80
25-11-2010 12:30:00;18,40
25-11-2010 12:45:00;18,50
25-11-2010 13:00:00;18,40
25-11-2010 13:15:00;18,30
25-11-2010 13:30:00;18,30
25-11-2010 13:45:00;17,90
25-11-2010 14:00:00;18,20
25-11-2010 14:15:00;18,20
25-11-2010 14:30:00;18,20
25-11-2010 14:45:00;18,30
25-11-2010 15:00:00;17,90
25-11-2010 15:15:00;18,00
25-11-2010 15:30:00;18,10
25-11-2010 15:45:00;18,10
25-11-2010 16:00:00;18,20
25-11-2010 16:15:00;18,20
25-11-2010 16:30:00;18,20
25-11-2010 16:45:00;18,40
25-11-2010 17:00:00;18,50
25-11-2010 17:15:00;18,40
25-11-2010 17:30:00;18,50
25-11-2010 17:45:00;18,50
25-11-2010 18:00:00;18,50
25-11-2010 18:15:00;18,50
25-11-2010 18:30:00;18,40
25-11-2010 18:45:00;18,60
25-11-2010 19:00:00;18,60
25-11-2010 19:15:00;18,60
25-11-2010 19:30:00;18,50
25-11-2010 19:45:00;18,70
25-11-2010 20:00:00;18,50
25-11-2010 20:15:00;18,50
25-11-2010 20:30:00;18,70
25-11-2010 20:45:00;18,70
25-11-2010 21:00:00;18,60
25-11-2010 21:15:00;18,50
25-11-2010 21:30:00;18,50
25-11-2010 21:45:00;18,50
25-11-2010 22:00:00;18,60
25-11-2010 22:15:00;18,50
25-11-2010 22:30:00;18,40
25-11-2010 22:45:00;18,50
25-11-2010 23:00:00;18,40
25-11-2010 23:15:00;18,40
25-11-2010 23:30:00;18,40
25-11-2010 23:45:00;18,50
26-11-2010 00:00:00;18,40
26-11-2010 00:15:00;18,30
26-11-2010 00:30:00;18,70
26-11-2010 00:45:00;18,50
26-11-2010 01:00:00;18,50
26-11-2010 01:15:00;18,50
26-11-2010 01:30:00;18,40
26-11-2010 01:45:00;18,40
26-11-2010 02:00:00;18,40
26-11-2010 02:15:00;18,80
26-11-2010 02:30:00;18,90
26-11-2010 02:45:00;18,50
26-11-2010 03:00:00;18,10
26-11-2010 03:15:00;18,30
26-11-2010 03:30:00;18,10
26-11-2010 03:45:00;18,00
26-11-2010 04:00:00;18,00
26-11-2010 04:15:00;18,00
26-11-2010 04:30:00;18,00
26-11-2010 04:45:00;18,00
26-11-2010 05:00:00;17,80
26-11-2010 05:15:00;17,60
26-11-2010 05:30:00;17,50
26-11-2010 05:45:00;17,40
26-11-2010 06:00:00;17,50
26-11-2010 06:15:00;17,30
26-11-2010 06:30:00;17,10
26-11-2010 06:45:00;17,20
26-11-2010 07:00:00;17,00
26-11-2010 07:15:00;17,10
26-11-2010 07:30:00;17,10
26-11-2010 07:45:00;17,10
26-11-2010 08:00:00;16,90
26-11-2010 08:15:00;16,90
26-11-2010 08:30:00;16,90
26-11-2010 08:45:00;16,80
26-11-2010 09:00:00;16,80
26-11-2010 09:15:00;16,80
26-11-2010 09:30:00;16,80
26-11-2010 09:45:00;16,90
26-11-2010 10:00:00;16,90
26-11-2010 10:15:00;16,60
26-11-2010 10:30:00;17,10
26-11-2010 10:45:00;17,00
26-11-2010 11:00:00;16,80
26-11-2010 11:15:00;16,40
26-11-2010 11:30:00;16,30
26-11-2010 11:45:00;16,40
26-11-2010 12:00:00;16,70
26-11-2010 12:15:00;16,50
26-11-2010 12:30:00;16,60
26-11-2010 12:45:00;16,40
26-11-2010 13:00:00;16,50
26-11-2010 13:15:00;16,80
26-11-2010 13:30:00;16,80
26-11-2010 13:45:00;16,60
26-11-2010 14:15:00;16,60
26-11-2010 14:30:00;16,90
26-11-2010 14:45:00;16,90
26-11-2010 15:00:00;16,90
26-11-2010 15:15:00;16,80
26-11-2010 15:30:00;16,60
26-11-2010 15:45:00;16,60
26-11-2010 16:00:00;16,60
26-11-2010 16:15:00;16,60
26-11-2010 16:30:00;16,60
26-11-2010 16:45:00;16,50
26-11-2010 17:00:00;16,60
26-11-2010 17:15:00;16,70
26-11-2010 17:30:00;16,90
26-11-2010 17:45:00;16,80
26-11-2010 18:00:00;16,70
26-11-2010 18:15:00;16,70
26-11-2010 18:30:00;16,60
26-11-2010 18:45:00;16,80
26-11-2010 19:00:00;16,80
26-11-2010 19:15:00;16,80
26-11-2010 19:30:00;16,80
26-11-2010 19:45:00;16,70
26-11-2010 20:00:00;16,60
26-11-2010 20:15:00;16,70
26-11-2010 20:30:00;16,60
26-11-2010 20:45:00;16,50
26-11-2010 21:00:00;16,50
26-11-2010 21:15:00;16,40
26-11-2010 21:30:00;16,50
26-11-2010 21:45:00;16,40
26-11-2010 22:00:00;16,30
26-11-2010 22:15:00;16,30
26-11-2010 22:30:00;16,30
26-11-2010 22:45:00;16,30
26-11-2010 23:00:00;16,20
26-11-2010 23:15:00;16,20
26-11-2010 23:30:00;16,10
26-11-2010 23:45:00;16,10
27-11-2010 00:00:00;16,10
27-11-2010 00:15:00;16,60
27-11-2010 00:30:00;16,30
27-11-2010 00:45:00;16,30
27-11-2010 01:00:00;16,20
27-11-2010 01:15:00;15,90
27-11-2010 01:30:00;16,00
27-11-2010 01:45:00;16,10
27-11-2010 02:00:00;16,00
27-11-2010 02:15:00;15,40
27-11-2010 02:30:00;15,60
27-11-2010 02:45:00;16,00
27-11-2010 03:00:00;16,00
27-11-2010 03:15:00;15,60
27-11-2010 03:30:00;15,70
27-11-2010 03:45:00;15,80
27-11-2010 04:00:00;15,50
27-11-2010 04:15:00;15,50
27-11-2010 04:30:00;15,30
27-11-2010 04:45:00;15,20
27-11-2010 05:00:00;15,30
27-11-2010 05:15:00;15,10
27-11-2010 05:30:00;15,50
27-11-2010 05:45:00;15,30
27-11-2010 06:00:00;15,10
27-11-2010 06:15:00;15,40
27-11-2010 06:30:00;15,30
27-11-2010 06:45:00;15,10
27-11-2010 07:00:00;15,10
27-11-2010 07:15:00;14,90
27-11-2010 07:30:00;14,80
27-11-2010 07:45:00;14,90
27-11-2010 08:00:00;15,00
27-11-2010 08:15:00;14,90
27-11-2010 08:30:00;15,00
27-11-2010 08:45:00;14,70
27-11-2010 09:00:00;14,50
27-11-2010 09:15:00;14,50
27-11-2010 09:30:00;14,20
27-11-2010 09:45:00;14,10
27-11-2010 10:00:00;14,00
27-11-2010 10:15:00;13,60
27-11-2010 10:30:00;13,70
27-11-2010 10:45:00;13,80
27-11-2010 11:00:00;13,70
27-11-2010 11:15:00;13,60
27-11-2010 11:30:00;14,00
27-11-2010 11:45:00;13,90
27-11-2010 12:00:00;13,80
27-11-2010 12:15:00;13,60
27-11-2010 12:30:00;13,60
27-11-2010 12:45:00;13,60
27-11-2010 13:00:00;13,60
27-11-2010 13:15:00;13,50
27-11-2010 13:30:00;13,60
27-11-2010 13:45:00;13,60
27-11-2010 14:00:00;13,60
27-11-2010 14:15:00;13,60
27-11-2010 14:30:00;13,70
27-11-2010 14:45:00;13,70
27-11-2010 15:00:00;13,60
27-11-2010 15:15:00;13,80
27-11-2010 15:30:00;14,00
27-11-2010 15:45:00;14,00
27-11-2010 16:00:00;14,00
27-11-2010 16:15:00;14,00
27-11-2010 16:30:00;14,00
27-11-2010 16:45:00;14,10
27-11-2010 17:00:00;14,10
27-11-2010 17:15:00;14,20
27-11-2010 17:30:00;14,10
27-11-2010 17:45:00;14,20
27-11-2010 18:00:00;14,20
27-11-2010 18:15:00;13,90
27-11-2010 18:30:00;14,20
27-11-2010 18:45:00;14,30
27-11-2010 19:00:00;14,30
27-11-2010 19:15:00;14,40
27-11-2010 19:30:00;14,30
27-11-2010 19:45:00;14,30
27-11-2010 20:00:00;14,30
27-11-2010 20:15:00;14,40
27-11-2010 20:30:00;14,30
27-11-2010 20:45:00;14,30
27-11-2010 21:00:00;14,40
27-11-2010 21:15:00;14,50
27-11-2010 21:30:00;14,40
27-11-2010 21:45:00;14,50
27-11-2010 22:00:00;14,50
27-11-2010 22:15:00;14,60
27-11-2010 22:30:00;14,60
27-11-2010 22:45:00;14,40
27-11-2010 23:00:00;14,60
27-11-2010 23:15:00;14,70
27-11-2010 23:30:00;14,50
27-11-2010 23:45:00;14,50
28-11-2010 00:00:00;14,50
28-11-2010 00:15:00;14,60
28-11-2010 00:30:00;14,50
28-11-2010 00:45:00;14,60
28-11-2010 01:00:00;14,60
28-11-2010 01:15:00;14,60
28-11-2010 01:30:00;14,60
28-11-2010 01:45:00;14,50
28-11-2010 02:00:00;14,40
28-11-2010 02:15:00;13,90
28-11-2010 02:30:00;14,10
28-11-2010 02:45:00;14,10
28-11-2010 03:00:00;14,00
28-11-2010 03:15:00;14,10
28-11-2010 03:30:00;14,10
28-11-2010 03:45:00;14,20
28-11-2010 04:00:00;14,00
28-11-2010 04:15:00;14,10
28-11-2010 04:30:00;14,10
28-11-2010 04:45:00;14,10
28-11-2010 05:00:00;14,00
28-11-2010 05:15:00;14,00
28-11-2010 05:30:00;14,00
28-11-2010 05:45:00;14,00
28-11-2010 06:00:00;14,00
28-11-2010 06:15:00;14,00
28-11-2010 06:30:00;13,80
28-11-2010 06:45:00;13,80
28-11-2010 07:00:00;13,70
28-11-2010 07:15:00;14,00
28-11-2010 07:30:00;13,90
28-11-2010 07:45:00;13,70
28-11-2010 08:00:00;13,80
28-11-2010 08:15:00;13,70
28-11-2010 08:30:00;13,80
28-11-2010 08:45:00;13,80
28-11-2010 09:00:00;13,50
28-11-2010 09:15:00;13,40
28-11-2010 09:30:00;13,40
28-11-2010 09:45:00;13,40
28-11-2010 10:00:00;13,20
28-11-2010 10:15:00;12,60
28-11-2010 10:30:00;12,70
28-11-2010 10:45:00;12,90
28-11-2010 11:00:00;12,90
28-11-2010 11:15:00;13,00
28-11-2010 11:30:00;13,00
28-11-2010 11:45:00;12,90
28-11-2010 12:00:00;12,90
28-11-2010 12:15:00;12,90
28-11-2010 12:30:00;12,90
28-11-2010 12:45:00;12,90
28-11-2010 13:00:00;12,90
28-11-2010 13:15:00;13,00
28-11-2010 13:30:00;13,00
28-11-2010 13:45:00;13,00
28-11-2010 14:00:00;13,00
28-11-2010 14:15:00;13,00
28-11-2010 14:30:00;13,10
28-11-2010 14:45:00;13,10
28-11-2010 15:00:00;13,20
28-11-2010 15:15:00;13,20
28-11-2010 15:30:00;13,30
28-11-2010 15:45:00;13,40
28-11-2010 16:00:00;13,40
28-11-2010 16:15:00;13,50
28-11-2010 16:30:00;13,50
28-11-2010 16:45:00;13,50
28-11-2010 17:00:00;13,50
28-11-2010 17:15:00;13,80
28-11-2010 17:30:00;13,70
28-11-2010 17:45:00;13,70
28-11-2010 18:00:00;13,90
28-11-2010 18:15:00;13,30
28-11-2010 18:30:00;13,70
28-11-2010 18:45:00;13,70
28-11-2010 19:00:00;14,00
28-11-2010 19:15:00;14,00
28-11-2010 19:30:00;14,00
28-11-2010 19:45:00;14,00
28-11-2010 20:00:00;14,00
28-11-2010 20:15:00;14,20
28-11-2010 20:30:00;15,10
28-11-2010 20:45:00;16,50
28-11-2010 21:00:00;16,90
28-11-2010 21:15:00;16,90
28-11-2010 21:30:00;16,90
28-11-2010 21:45:00;16,80
28-11-2010 22:00:00;16,70
28-11-2010 22:15:00;16,40
28-11-2010 22:30:00;16,30
28-11-2010 22:45:00;16,30
28-11-2010 23:00:00;16,10
28-11-2010 23:15:00;16,10
28-11-2010 23:30:00;15,90
28-11-2010 23:45:00;15,90
29-11-2010 00:00:00;15,80
29-11-2010 00:15:00;15,60
29-11-2010 00:30:00;15,40
29-11-2010 00:45:00;15,30
29-11-2010 01:00:00;15,00
29-11-2010 01:15:00;15,10
29-11-2010 01:30:00;14,80
29-11-2010 01:45:00;14,70
29-11-2010 02:00:00;14,40
29-11-2010 02:15:00;14,00
29-11-2010 02:30:00;14,10
29-11-2010 02:45:00;14,10
29-11-2010 03:00:00;14,00
29-11-2010 03:15:00;14,00
29-11-2010 03:30:00;14,00
29-11-2010 03:45:00;14,00
29-11-2010 04:00:00;13,80
29-11-2010 04:15:00;13,80
29-11-2010 04:30:00;13,70
29-11-2010 04:45:00;13,60
29-11-2010 05:00:00;13,50
29-11-2010 05:15:00;13,50
29-11-2010 05:30:00;13,50
29-11-2010 05:45:00;13,40
29-11-2010 06:00:00;13,50
29-11-2010 06:15:00;13,40
29-11-2010 06:30:00;13,20
29-11-2010 06:45:00;13,30
29-11-2010 07:00:00;13,20
29-11-2010 07:15:00;13,20
29-11-2010 07:30:00;13,10
29-11-2010 07:45:00;13,20
29-11-2010 08:00:00;13,00
29-11-2010 08:15:00;12,80
29-11-2010 08:30:00;12,80
29-11-2010 08:45:00;12,80
29-11-2010 09:00:00;12,90
29-11-2010 09:15:00;12,70
29-11-2010 09:30:00;12,60
29-11-2010 09:45:00;12,60
29-11-2010 10:00:00;12,40
29-11-2010 10:15:00;12,00
29-11-2010 10:30:00;12,20
29-11-2010 10:45:00;12,20
29-11-2010 11:00:00;12,10
29-11-2010 11:15:00;12,10
29-11-2010 11:30:00;12,10
29-11-2010 11:45:00;12,00
29-11-2010 12:00:00;12,00
29-11-2010 12:15:00;12,00
29-11-2010 12:30:00;12,00
29-11-2010 12:45:00;12,00
29-11-2010 13:00:00;12,00
29-11-2010 13:15:00;12,00
29-11-2010 13:30:00;12,10
29-11-2010 13:45:00;12,00
29-11-2010 14:00:00;12,00
29-11-2010 14:15:00;12,00
29-11-2010 14:30:00;12,10
29-11-2010 14:45:00;12,10
29-11-2010 15:00:00;12,20
29-11-2010 15:15:00;12,10
29-11-2010 15:30:00;12,10
29-11-2010 15:45:00;12,10
29-11-2010 16:00:00;12,10
29-11-2010 16:15:00;12,10
29-11-2010 16:30:00;12,10
29-11-2010 16:45:00;12,20
29-11-2010 17:00:00;12,20
29-11-2010 17:15:00;12,30
29-11-2010 17:30:00;12,20
29-11-2010 17:45:00;12,30
29-11-2010 18:00:00;12,30
29-11-2010 18:15:00;12,10
29-11-2010 18:30:00;12,10
29-11-2010 18:45:00;12,20
29-11-2010 19:00:00;12,40
29-11-2010 19:15:00;12,50
29-11-2010 19:30:00;12,30
29-11-2010 19:45:00;12,40
29-11-2010 20:00:00;12,50
29-11-2010 20:15:00;12,60
29-11-2010 20:30:00;12,70
29-11-2010 20:45:00;12,60
29-11-2010 21:00:00;12,50
29-11-2010 21:15:00;12,40
29-11-2010 21:30:00;12,60
29-11-2010 21:45:00;12,60
29-11-2010 22:00:00;12,60
29-11-2010 22:15:00;12,60
29-11-2010 22:30:00;12,60
29-11-2010 22:45:00;12,80
29-11-2010 23:00:00;12,70
29-11-2010 23:15:00;12,80
29-11-2010 23:30:00;12,60
29-11-2010 23:45:00;12,60
30-11-2010 00:00:00;12,80
30-11-2010 00:15:00;12,90
30-11-2010 00:30:00;12,70
30-11-2010 00:45:00;12,60
30-11-2010 01:00:00;12,80
30-11-2010 01:15:00;12,60
30-11-2010 01:30:00;12,70
30-11-2010 01:45:00;12,80
30-11-2010 02:00:00;12,60
30-11-2010 02:15:00;12,30
30-11-2010 02:30:00;12,40
30-11-2010 02:45:00;12,30
30-11-2010 03:00:00;12,50
30-11-2010 03:15:00;12,50
30-11-2010 03:30:00;12,40
30-11-2010 03:45:00;12,60
30-11-2010 04:00:00;12,60
30-11-2010 04:15:00;12,60
30-11-2010 04:30:00;12,50
30-11-2010 04:45:00;12,50
30-11-2010 05:00:00;12,50
30-11-2010 05:15:00;12,50
03-12-2010 10:15:00;16,40
03-12-2010 10:30:00;16,30
03-12-2010 11:30:00;16,00
03-12-2010 12:15:00;15,80
03-12-2010 12:30:00;15,80
03-12-2010 12:45:00;15,80
03-12-2010 13:00:00;15,80
03-12-2010 13:15:00;15,80
03-12-2010 15:45:00;15,60
03-12-2010 16:00:00;15,40
03-12-2010 16:15:00;15,10
03-12-2010 16:30:00;15,00
03-12-2010 16:45:00;15,00
03-12-2010 17:00:00;15,00
03-12-2010 17:15:00;15,20
03-12-2010 17:30:00;15,20
03-12-2010 17:45:00;15,10
03-12-2010 18:00:00;15,10
03-12-2010 18:15:00;15,20
03-12-2010 18:30:00;15,40
03-12-2010 18:45:00;15,50
03-12-2010 19:00:00;15,80
03-12-2010 19:15:00;15,80
03-12-2010 19:30:00;15,80
03-12-2010 19:45:00;15,90
03-12-2010 20:00:00;15,90
03-12-2010 20:15:00;15,90
03-12-2010 20:30:00;15,90
03-12-2010 20:45:00;15,90
03-12-2010 21:00:00;15,90
03-12-2010 21:15:00;15,80
03-12-2010 21:30:00;15,80
03-12-2010 21:45:00;15,70
03-12-2010 22:00:00;15,60
03-12-2010 22:15:00;14,20
03-12-2010 22:30:00;14,10
03-12-2010 22:45:00;14,50
03-12-2010 23:00:00;14,60
03-12-2010 23:15:00;14,60
03-12-2010 23:30:00;14,70
03-12-2010 23:45:00;14,80
04-12-2010 00:00:00;14,80
04-12-2010 00:15:00;14,90
04-12-2010 00:30:00;14,80
04-12-2010 00:45:00;14,90
04-12-2010 01:00:00;15,10
04-12-2010 01:15:00;15,10
04-12-2010 01:30:00;15,00
04-12-2010 01:45:00;15,10
04-12-2010 02:00:00;15,10
04-12-2010 02:15:00;14,60
04-12-2010 02:30:00;14,60
04-12-2010 02:45:00;14,70
04-12-2010 03:00:00;14,60
04-12-2010 03:15:00;14,50
04-12-2010 03:30:00;14,50
04-12-2010 03:45:00;15,00
04-12-2010 04:00:00;15,50
04-12-2010 04:15:00;15,70
04-12-2010 04:30:00;15,90
04-12-2010 04:45:00;16,30
04-12-2010 05:00:00;16,80
04-12-2010 05:15:00;17,90
04-12-2010 05:30:00;17,60
04-12-2010 05:45:00;16,40
04-12-2010 06:00:00;15,80
04-12-2010 06:15:00;13,90
04-12-2010 06:30:00;13,70
04-12-2010 06:45:00;13,70
04-12-2010 07:00:00;13,40
04-12-2010 07:15:00;13,40
04-12-2010 07:30:00;13,40
04-12-2010 07:45:00;13,50
04-12-2010 08:00:00;13,30
04-12-2010 08:15:00;13,20
04-12-2010 08:30:00;13,30
04-12-2010 08:45:00;13,30
04-12-2010 09:00:00;13,70
04-12-2010 09:15:00;13,60
04-12-2010 09:30:00;13,40
04-12-2010 09:45:00;13,30
04-12-2010 10:00:00;13,10
04-12-2010 10:15:00;13,00
04-12-2010 10:30:00;13,10
04-12-2010 10:45:00;13,40
04-12-2010 11:00:00;13,10
04-12-2010 11:15:00;13,00
04-12-2010 11:30:00;13,00
04-12-2010 11:45:00;13,10
04-12-2010 12:00:00;13,20
04-12-2010 12:15:00;13,20
04-12-2010 12:30:00;13,20
04-12-2010 12:45:00;13,30
04-12-2010 13:00:00;13,20
04-12-2010 13:15:00;13,30
04-12-2010 13:30:00;13,00
04-12-2010 13:45:00;13,20
04-12-2010 14:00:00;13,40
04-12-2010 14:15:00;12,40
04-12-2010 14:30:00;11,70
04-12-2010 14:45:00;12,00
04-12-2010 15:00:00;12,10
04-12-2010 15:15:00;12,10
04-12-2010 15:30:00;12,40
04-12-2010 15:45:00;12,60
04-12-2010 16:00:00;12,60
04-12-2010 16:15:00;12,70
04-12-2010 16:30:00;12,80
04-12-2010 16:45:00;12,80
04-12-2010 17:00:00;13,00
04-12-2010 17:15:00;13,30
04-12-2010 17:30:00;13,40
04-12-2010 17:45:00;13,60
04-12-2010 18:00:00;13,80
04-12-2010 18:15:00;14,10
04-12-2010 18:30:00;14,30
04-12-2010 18:45:00;14,40
04-12-2010 19:00:00;14,60
04-12-2010 19:15:00;14,90
04-12-2010 19:30:00;14,90
04-12-2010 19:45:00;15,00
04-12-2010 20:00:00;15,00
04-12-2010 20:15:00;15,10
04-12-2010 20:30:00;15,40
04-12-2010 20:45:00;15,50
04-12-2010 21:00:00;15,40
04-12-2010 21:15:00;15,40
04-12-2010 21:30:00;15,40
04-12-2010 21:45:00;15,50
04-12-2010 22:00:00;15,40
04-12-2010 22:15:00;14,00
04-12-2010 22:30:00;14,00
04-12-2010 22:45:00;14,20
04-12-2010 23:00:00;14,30
09-12-2010 15:45:00;26,90
09-12-2010 16:15:00;26,60
09-12-2010 16:30:00;26,20
09-12-2010 16:45:00;26,10
09-12-2010 17:00:00;26,40
09-12-2010 17:15:00;26,40
09-12-2010 17:30:00;26,00
09-12-2010 17:45:00;26,20
09-12-2010 18:00:00;26,40
09-12-2010 18:15:00;26,40
09-12-2010 18:30:00;25,80
09-12-2010 18:45:00;26,10
09-12-2010 19:00:00;25,90
09-12-2010 19:15:00;25,80
09-12-2010 19:30:00;25,90
09-12-2010 19:45:00;26,20
09-12-2010 20:00:00;26,30
09-12-2010 20:15:00;25,90
09-12-2010 20:45:00;26,10
09-12-2010 21:00:00;26,20
09-12-2010 21:15:00;26,10
09-12-2010 21:30:00;26,10
09-12-2010 21:45:00;26,30
09-12-2010 22:00:00;26,20
09-12-2010 22:15:00;24,50
09-12-2010 22:30:00;24,50
09-12-2010 22:45:00;24,90
09-12-2010 23:00:00;25,20
09-12-2010 23:15:00;24,90
09-12-2010 23:30:00;24,70
09-12-2010 23:45:00;24,60
10-12-2010 00:00:00;24,50
10-12-2010 00:15:00;24,80
10-12-2010 00:30:00;24,80
10-12-2010 00:45:00;24,80
10-12-2010 01:00:00;24,80
10-12-2010 01:15:00;24,90
10-12-2010 01:30:00;24,60
10-12-2010 01:45:00;24,60
10-12-2010 02:00:00;25,10
10-12-2010 02:15:00;25,10
10-12-2010 02:30:00;25,00
10-12-2010 02:45:00;24,90
10-12-2010 03:00:00;25,30
10-12-2010 03:15:00;25,50
10-12-2010 03:30:00;25,40
10-12-2010 03:45:00;25,60
10-12-2010 04:00:00;25,70
10-12-2010 04:15:00;25,60
10-12-2010 04:30:00;25,10
10-12-2010 04:45:00;24,90
10-12-2010 05:00:00;25,10
10-12-2010 05:15:00;25,20
10-12-2010 05:30:00;25,40
10-12-2010 05:45:00;25,60
10-12-2010 06:00:00;25,70
10-12-2010 06:15:00;24,40
10-12-2010 06:30:00;23,90
10-12-2010 06:45:00;24,20
10-12-2010 07:00:00;24,40
10-12-2010 07:15:00;24,60
10-12-2010 07:30:00;24,20
10-12-2010 07:45:00;24,30
10-12-2010 08:00:00;24,50
10-12-2010 08:15:00;24,50
10-12-2010 08:30:00;24,30
10-12-2010 08:45:00;24,30
10-12-2010 09:00:00;24,40
10-12-2010 09:15:00;24,40
10-12-2010 09:30:00;24,40
10-12-2010 09:45:00;24,50
10-12-2010 10:00:00;24,70
10-12-2010 10:15:00;24,80
10-12-2010 11:30:00;25,20
10-12-2010 11:45:00;25,40
10-12-2010 14:15:00;22,10
10-12-2010 14:30:00;22,20
10-12-2010 14:45:00;22,20
10-12-2010 15:00:00;21,90
10-12-2010 15:15:00;21,90
10-12-2010 15:30:00;21,70
10-12-2010 15:45:00;21,60
10-12-2010 16:00:00;21,80
10-12-2010 16:15:00;22,00
10-12-2010 16:30:00;22,10
10-12-2010 16:45:00;22,20
10-12-2010 17:00:00;22,40
10-12-2010 17:15:00;22,60
10-12-2010 17:30:00;22,80
10-12-2010 17:45:00;23,10
10-12-2010 18:00:00;23,20
10-12-2010 18:15:00;23,20
10-12-2010 18:30:00;23,40
10-12-2010 18:45:00;23,60
10-12-2010 19:00:00;23,30
10-12-2010 19:15:00;23,30
10-12-2010 19:30:00;23,20
10-12-2010 19:45:00;23,00
10-12-2010 20:00:00;23,60
10-12-2010 20:15:00;23,60
10-12-2010 20:30:00;23,70
10-12-2010 20:45:00;23,70
10-12-2010 21:00:00;23,60
10-12-2010 21:15:00;23,60
10-12-2010 21:30:00;23,50
14-12-2010 13:30:00;12,20
14-12-2010 13:45:00;12,20
14-12-2010 14:00:00;10,70
14-12-2010 14:30:00;10,90
14-12-2010 14:45:00;10,80
14-12-2010 15:00:00;10,90
14-12-2010 15:15:00;11,10
14-12-2010 15:30:00;11,00
14-12-2010 16:00:00;9,20
14-12-2010 16:15:00;9,60
14-12-2010 16:30:00;9,90
14-12-2010 16:45:00;7,60
14-12-2010 17:00:00;7,30
14-12-2010 17:15:00;7,60
14-12-2010 17:30:00;7,60
14-12-2010 17:45:00;7,60
14-12-2010 18:00:00;7,60
14-12-2010 18:15:00;8,00
14-12-2010 18:30:00;8,60
14-12-2010 18:45:00;8,70
14-12-2010 19:00:00;9,00
14-12-2010 19:15:00;9,30
14-12-2010 19:30:00;9,50
14-12-2010 19:45:00;9,60
14-12-2010 20:00:00;9,60
14-12-2010 20:15:00;9,60
14-12-2010 20:30:00;9,70
14-12-2010 20:45:00;9,60
14-12-2010 21:00:00;9,70
14-12-2010 21:15:00;9,60
14-12-2010 21:30:00;9,60
14-12-2010 21:45:00;9,60
14-12-2010 22:00:00;9,60
14-12-2010 22:15:00;9,50
14-12-2010 22:30:00;9,50
14-12-2010 22:45:00;9,40
14-12-2010 23:00:00;9,50
14-12-2010 23:15:00;9,60
14-12-2010 23:30:00;9,40
14-12-2010 23:45:00;9,20
15-12-2010 00:00:00;9,10
15-12-2010 00:15:00;8,90
15-12-2010 00:30:00;7,90
15-12-2010 00:45:00;7,20
15-12-2010 01:00:00;7,30
15-12-2010 01:15:00;7,60
15-12-2010 01:30:00;7,60
15-12-2010 01:45:00;7,70
15-12-2010 02:00:00;7,60
15-12-2010 02:15:00;7,60
15-12-2010 02:30:00;7,60
15-12-2010 02:45:00;7,50
15-12-2010 03:00:00;7,50
15-12-2010 03:15:00;7,50
15-12-2010 03:30:00;7,50
15-12-2010 03:45:00;7,70
15-12-2010 04:00:00;7,50
15-12-2010 04:15:00;7,60
15-12-2010 04:30:00;7,70
15-12-2010 04:45:00;7,60
15-12-2010 05:00:00;7,70
15-12-2010 05:15:00;7,80
15-12-2010 05:30:00;7,80
15-12-2010 05:45:00;7,70
15-12-2010 06:00:00;7,60
15-12-2010 06:15:00;7,60
15-12-2010 06:30:00;7,60
15-12-2010 06:45:00;7,60
15-12-2010 07:00:00;7,70
15-12-2010 07:15:00;7,70
15-12-2010 07:30:00;7,80
15-12-2010 07:45:00;7,70
15-12-2010 08:00:00;7,60
15-12-2010 08:15:00;7,50
15-12-2010 08:30:00;7,10
15-12-2010 08:45:00;5,80
15-12-2010 09:00:00;5,80
15-12-2010 09:15:00;5,60
15-12-2010 09:30:00;5,30
15-12-2010 09:45:00;5,30
15-12-2010 10:00:00;5,50
15-12-2010 10:15:00;5,50
15-12-2010 10:30:00;5,20
15-12-2010 10:45:00;5,00
15-12-2010 11:00:00;5,30
15-12-2010 11:15:00;5,40
15-12-2010 11:30:00;5,70
15-12-2010 11:45:00;7,00
15-12-2010 12:00:00;6,60
15-12-2010 12:15:00;6,10
15-12-2010 12:30:00;5,30
15-12-2010 12:45:00;5,30
15-12-2010 13:00:00;5,50
15-12-2010 13:15:00;5,80
15-12-2010 13:30:00;5,70
15-12-2010 13:45:00;5,40
15-12-2010 14:00:00;5,40
15-12-2010 14:45:00;5,60
15-12-2010 15:00:00;5,60
15-12-2010 15:15:00;5,60
15-12-2010 15:30:00;5,60
15-12-2010 15:45:00;5,50
15-12-2010 16:00:00;5,50
15-12-2010 16:15:00;5,70
15-12-2010 16:30:00;5,40
15-12-2010 16:45:00;4,30
15-12-2010 17:00:00;4,50
15-12-2010 17:15:00;4,80
15-12-2010 17:30:00;4,90
15-12-2010 17:45:00;4,90
15-12-2010 18:00:00;5,00
15-12-2010 18:15:00;5,10
15-12-2010 18:30:00;5,20
15-12-2010 18:45:00;5,20
15-12-2010 19:00:00;5,20
15-12-2010 19:15:00;5,30
15-12-2010 19:30:00;5,30
15-12-2010 19:45:00;5,30
15-12-2010 20:00:00;5,40
15-12-2010 20:15:00;5,60
15-12-2010 20:30:00;5,60
15-12-2010 20:45:00;5,60
15-12-2010 21:00:00;5,50
15-12-2010 21:15:00;5,60
15-12-2010 21:30:00;5,70
15-12-2010 21:45:00;5,80
15-12-2010 22:00:00;5,70
15-12-2010 22:15:00;5,70
15-12-2010 22:30:00;5,70
15-12-2010 22:45:00;5,60
15-12-2010 23:00:00;5,40
15-12-2010 23:15:00;5,60
15-12-2010 23:30:00;5,60
15-12-2010 23:45:00;5,60
16-12-2010 00:00:00;5,40
16-12-2010 00:15:00;5,50
16-12-2010 00:30:00;5,40
16-12-2010 00:45:00;4,60
16-12-2010 01:00:00;4,50
16-12-2010 01:15:00;4,60
16-12-2010 01:30:00;4,60
16-12-2010 01:45:00;4,60
16-12-2010 02:00:00;4,60
16-12-2010 02:15:00;4,60
16-12-2010 02:30:00;4,60
16-12-2010 02:45:00;4,60
16-12-2010 03:00:00;4,70
16-12-2010 03:15:00;4,70
16-12-2010 03:30:00;4,70
16-12-2010 03:45:00;4,70
16-12-2010 04:00:00;4,60
16-12-2010 04:15:00;4,70
16-12-2010 04:30:00;4,80
16-12-2010 04:45:00;4,80
16-12-2010 05:00:00;4,80
16-12-2010 05:15:00;4,80
16-12-2010 05:30:00;4,80
16-12-2010 05:45:00;4,80
16-12-2010 06:00:00;4,90
16-12-2010 06:15:00;4,90
16-12-2010 06:30:00;4,90
16-12-2010 06:45:00;5,00
16-12-2010 07:00:00;5,00
16-12-2010 07:15:00;5,00
16-12-2010 07:30:00;5,00
16-12-2010 07:45:00;5,10
16-12-2010 08:00:00;5,20
16-12-2010 08:15:00;5,40
16-12-2010 08:30:00;5,20
16-12-2010 08:45:00;4,40
16-12-2010 09:00:00;4,50
16-12-2010 09:15:00;4,60
16-12-2010 09:30:00;4,60
16-12-2010 09:45:00;4,70
16-12-2010 10:00:00;4,70
16-12-2010 10:15:00;4,70
16-12-2010 10:30:00;4,60
16-12-2010 10:45:00;4,80
16-12-2010 11:00:00;4,80
16-12-2010 11:15:00;4,90
16-12-2010 11:30:00;5,20
16-12-2010 11:45:00;5,10
16-12-2010 12:00:00;5,10
16-12-2010 12:15:00;5,30
16-12-2010 12:30:00;5,40
16-12-2010 12:45:00;5,30
16-12-2010 13:00:00;5,40
16-12-2010 13:15:00;5,40
16-12-2010 13:30:00;5,40
16-12-2010 13:45:00;5,40
16-12-2010 14:00:00;5,50
16-12-2010 14:15:00;5,50
16-12-2010 14:30:00;5,40
16-12-2010 14:45:00;5,50
16-12-2010 15:00:00;5,60
16-12-2010 15:15:00;5,80
16-12-2010 15:30:00;5,80
16-12-2010 15:45:00;5,90
16-12-2010 16:00:00;6,10
16-12-2010 16:15:00;6,20
16-12-2010 16:30:00;5,90
16-12-2010 16:45:00;4,90
16-12-2010 17:00:00;5,40
16-12-2010 17:15:00;5,80
16-12-2010 17:30:00;6,20
16-12-2010 17:45:00;6,20
16-12-2010 18:00:00;6,40
16-12-2010 18:15:00;6,30
16-12-2010 18:30:00;6,30
16-12-2010 18:45:00;6,90
16-12-2010 19:00:00;7,00
16-12-2010 19:15:00;7,10
16-12-2010 19:30:00;7,40
16-12-2010 19:45:00;7,50
16-12-2010 20:00:00;7,60
16-12-2010 20:15:00;7,60
16-12-2010 20:30:00;7,60
16-12-2010 20:45:00;7,60
16-12-2010 21:00:00;7,60
16-12-2010 21:15:00;7,60
16-12-2010 21:30:00;7,70
16-12-2010 21:45:00;7,70
16-12-2010 22:00:00;7,80
16-12-2010 22:15:00;7,90
16-12-2010 22:30:00;7,90
16-12-2010 22:45:00;7,70
16-12-2010 23:00:00;7,70
16-12-2010 23:15:00;7,60
16-12-2010 23:30:00;7,60
16-12-2010 23:45:00;7,40
17-12-2010 00:00:00;7,40
17-12-2010 00:15:00;7,70
17-12-2010 00:30:00;6,80
17-12-2010 00:45:00;5,70
17-12-2010 01:00:00;6,10
17-12-2010 01:15:00;6,30
17-12-2010 01:30:00;6,40
17-12-2010 01:45:00;6,50
17-12-2010 02:00:00;6,50
17-12-2010 02:15:00;6,70
17-12-2010 02:30:00;6,70
17-12-2010 02:45:00;6,60
17-12-2010 03:00:00;6,80
17-12-2010 03:15:00;6,90
17-12-2010 03:30:00;6,80
17-12-2010 03:45:00;6,80
17-12-2010 04:00:00;6,80
17-12-2010 04:15:00;6,80
17-12-2010 04:30:00;7,00
17-12-2010 04:45:00;7,00
17-12-2010 05:00:00;7,00
17-12-2010 05:15:00;6,90
17-12-2010 05:30:00;7,00
17-12-2010 05:45:00;7,10
17-12-2010 06:00:00;7,10
17-12-2010 06:15:00;7,10
17-12-2010 06:30:00;7,00
17-12-2010 06:45:00;7,00
17-12-2010 07:00:00;6,90
17-12-2010 07:15:00;6,80
17-12-2010 07:30:00;6,90
17-12-2010 07:45:00;7,00
17-12-2010 08:00:00;7,00
17-12-2010 08:15:00;7,90
17-12-2010 08:30:00;7,40
17-12-2010 08:45:00;6,10
17-12-2010 09:00:00;5,70
17-12-2010 09:15:00;5,60
17-12-2010 09:30:00;5,60
17-12-2010 09:45:00;5,60
17-12-2010 10:00:00;5,50
17-12-2010 10:15:00;5,60
17-12-2010 10:30:00;5,50
17-12-2010 11:45:00;15,30
17-12-2010 12:00:00;15,80
17-12-2010 12:15:00;15,80
17-12-2010 12:30:00;14,80
17-12-2010 12:45:00;14,70
17-12-2010 13:00:00;14,70
17-12-2010 13:15:00;14,50
17-12-2010 13:30:00;14,50
17-12-2010 13:45:00;14,50
17-12-2010 14:00:00;14,40
17-12-2010 14:15:00;14,40
17-12-2010 14:30:00;14,50
17-12-2010 14:45:00;14,50
17-12-2010 15:00:00;14,70
17-12-2010 15:15:00;14,70
17-12-2010 15:30:00;14,70
17-12-2010 15:45:00;14,70
17-12-2010 16:00:00;14,80
17-12-2010 16:15:00;15,10
17-12-2010 16:30:00;15,00
17-12-2010 16:45:00;15,00
17-12-2010 17:00:00;15,40
17-12-2010 17:15:00;15,40
17-12-2010 17:30:00;15,30
17-12-2010 17:45:00;15,30
17-12-2010 18:00:00;15,60
17-12-2010 18:15:00;15,50
17-12-2010 18:30:00;15,50
17-12-2010 18:45:00;15,70
17-12-2010 19:00:00;15,20
17-12-2010 19:15:00;14,90
17-12-2010 19:30:00;15,20
17-12-2010 19:45:00;15,50
17-12-2010 20:00:00;15,60
17-12-2010 20:15:00;15,60
17-12-2010 20:30:00;15,70
17-12-2010 20:45:00;15,80
17-12-2010 21:00:00;15,70
17-12-2010 21:15:00;15,80
17-12-2010 21:30:00;16,00
17-12-2010 21:45:00;16,10
17-12-2010 22:00:00;16,40
17-12-2010 22:30:00;16,40
17-12-2010 22:45:00;16,40
17-12-2010 23:00:00;16,50
17-12-2010 23:15:00;16,50
17-12-2010 23:30:00;16,40
17-12-2010 23:45:00;16,40
18-12-2010 00:00:00;16,40
18-12-2010 00:15:00;16,40
18-12-2010 00:30:00;16,40
18-12-2010 00:45:00;16,50
18-12-2010 01:00:00;16,60
18-12-2010 01:15:00;16,90
18-12-2010 01:30:00;16,90
18-12-2010 01:45:00;16,90
18-12-2010 02:00:00;16,80
18-12-2010 02:15:00;17,00
18-12-2010 02:30:00;16,80
18-12-2010 02:45:00;17,00
18-12-2010 03:00:00;16,10
18-12-2010 03:15:00;15,90
18-12-2010 03:30:00;15,90
18-12-2010 03:45:00;16,10
18-12-2010 04:00:00;16,20
18-12-2010 04:15:00;16,30
18-12-2010 04:30:00;16,20
18-12-2010 04:45:00;16,30
18-12-2010 05:00:00;16,50
18-12-2010 05:15:00;16,40
18-12-2010 05:30:00;16,40
18-12-2010 05:45:00;16,40
18-12-2010 06:00:00;16,60
18-12-2010 06:15:00;16,50
18-12-2010 06:30:00;16,60
18-12-2010 06:45:00;16,50
18-12-2010 07:00:00;16,70
18-12-2010 07:15:00;16,80
18-12-2010 07:30:00;16,90
18-12-2010 07:45:00;16,70
18-12-2010 08:00:00;17,00
18-12-2010 08:15:00;16,70
18-12-2010 08:30:00;16,60
18-12-2010 08:45:00;17,20
18-12-2010 09:00:00;16,90
18-12-2010 09:15:00;17,20
18-12-2010 09:30:00;16,80
18-12-2010 09:45:00;16,60
18-12-2010 10:00:00;16,40
18-12-2010 10:15:00;16,40
18-12-2010 10:30:00;16,30
18-12-2010 10:45:00;16,40
18-12-2010 11:00:00;15,20
18-12-2010 11:15:00;14,80
18-12-2010 11:30:00;15,00
18-12-2010 11:45:00;15,30
18-12-2010 12:00:00;15,20
18-12-2010 12:15:00;15,40
18-12-2010 12:30:00;15,60
18-12-2010 12:45:00;15,60
18-12-2010 13:00:00;15,60
18-12-2010 13:15:00;15,80
18-12-2010 13:30:00;15,80
18-12-2010 13:45:00;15,80
18-12-2010 14:00:00;15,90
18-12-2010 14:15:00;15,90
18-12-2010 14:30:00;15,80
18-12-2010 14:45:00;15,90
18-12-2010 15:00:00;15,80
18-12-2010 15:15:00;15,80
18-12-2010 15:30:00;15,90
18-12-2010 15:45:00;16,00
18-12-2010 16:00:00;16,00
18-12-2010 16:15:00;16,10
18-12-2010 16:30:00;16,20
18-12-2010 16:45:00;16,40
18-12-2010 17:00:00;16,40
18-12-2010 17:15:00;16,60
18-12-2010 17:30:00;16,90
18-12-2010 17:45:00;17,10
18-12-2010 18:00:00;17,20
18-12-2010 18:15:00;17,50
18-12-2010 18:30:00;17,70
18-12-2010 18:45:00;17,80
18-12-2010 19:00:00;17,40
18-12-2010 19:15:00;16,90
18-12-2010 19:30:00;17,10
18-12-2010 19:45:00;17,20
18-12-2010 20:00:00;17,40
18-12-2010 20:15:00;17,40
18-12-2010 20:30:00;17,40
18-12-2010 20:45:00;17,70
18-12-2010 21:00:00;17,60
18-12-2010 21:15:00;17,70
18-12-2010 21:30:00;17,70
18-12-2010 21:45:00;17,90
18-12-2010 22:00:00;17,80
18-12-2010 22:15:00;17,80
18-12-2010 22:30:00;17,80
18-12-2010 22:45:00;17,70
18-12-2010 23:00:00;18,10
18-12-2010 23:15:00;17,80
18-12-2010 23:30:00;17,90
18-12-2010 23:45:00;18,10
19-12-2010 00:00:00;18,10
19-12-2010 00:15:00;18,10
19-12-2010 00:30:00;17,90
19-12-2010 00:45:00;18,00
19-12-2010 01:00:00;18,00
19-12-2010 01:15:00;18,00
19-12-2010 01:30:00;18,20
19-12-2010 01:45:00;18,20
19-12-2010 02:00:00;18,10
19-12-2010 02:15:00;18,10
19-12-2010 02:30:00;18,20
19-12-2010 02:45:00;18,30
19-12-2010 03:00:00;17,20
19-12-2010 03:15:00;16,60
19-12-2010 03:30:00;16,80
19-12-2010 03:45:00;17,00
19-12-2010 04:00:00;17,30
19-12-2010 04:15:00;17,10
19-12-2010 04:30:00;17,10
19-12-2010 04:45:00;17,00
19-12-2010 05:00:00;16,90
19-12-2010 05:15:00;17,10
19-12-2010 05:30:00;17,40
19-12-2010 05:45:00;17,20
19-12-2010 06:00:00;17,20
19-12-2010 06:15:00;17,20
19-12-2010 06:30:00;17,40
19-12-2010 06:45:00;17,40
19-12-2010 07:00:00;17,30
19-12-2010 07:15:00;17,50
19-12-2010 07:30:00;17,50
19-12-2010 07:45:00;17,50
19-12-2010 08:00:00;17,60
19-12-2010 08:15:00;17,60
19-12-2010 08:30:00;17,50
19-12-2010 08:45:00;17,30
19-12-2010 09:00:00;17,20
19-12-2010 09:15:00;17,10
19-12-2010 09:30:00;17,10
19-12-2010 09:45:00;17,30
19-12-2010 10:00:00;17,20
19-12-2010 10:15:00;17,30
19-12-2010 10:30:00;17,20
19-12-2010 10:45:00;17,20
19-12-2010 11:00:00;16,80
19-12-2010 11:15:00;16,00
19-12-2010 11:30:00;16,20
19-12-2010 11:45:00;16,40
19-12-2010 12:00:00;16,60
19-12-2010 12:15:00;16,50
19-12-2010 12:30:00;16,60
19-12-2010 12:45:00;16,80
19-12-2010 13:00:00;16,90
19-12-2010 13:15:00;17,10
19-12-2010 13:30:00;17,30
19-12-2010 13:45:00;17,30
19-12-2010 14:00:00;17,50
19-12-2010 14:15:00;17,40
19-12-2010 14:30:00;17,80
19-12-2010 14:45:00;17,90
19-12-2010 15:00:00;18,30
19-12-2010 15:15:00;18,30
19-12-2010 15:30:00;18,30
19-12-2010 15:45:00;18,60
19-12-2010 16:00:00;18,80
19-12-2010 16:15:00;19,00
19-12-2010 16:30:00;19,20
19-12-2010 16:45:00;19,20
19-12-2010 17:00:00;18,80
19-12-2010 17:15:00;18,50
19-12-2010 17:30:00;18,50
19-12-2010 17:45:00;18,60
19-12-2010 18:00:00;18,80
19-12-2010 18:15:00;18,90
19-12-2010 18:30:00;19,10
19-12-2010 18:45:00;19,30
19-12-2010 19:00:00;18,50
19-12-2010 19:15:00;18,40
19-12-2010 19:30:00;19,20
19-12-2010 19:45:00;20,00
19-12-2010 20:00:00;19,40
19-12-2010 20:15:00;19,10
19-12-2010 20:30:00;19,10
19-12-2010 20:45:00;19,30
19-12-2010 21:00:00;19,30
19-12-2010 21:15:00;19,30
19-12-2010 21:30:00;19,30
19-12-2010 21:45:00;19,30
19-12-2010 22:00:00;19,50
19-12-2010 22:15:00;19,60
19-12-2010 22:30:00;19,70
19-12-2010 22:45:00;19,60
19-12-2010 23:00:00;19,80
19-12-2010 23:15:00;20,20
19-12-2010 23:30:00;20,20
19-12-2010 23:45:00;20,20
20-12-2010 00:00:00;20,30
20-12-2010 00:15:00;20,40
20-12-2010 00:30:00;20,10
20-12-2010 00:45:00;20,40
20-12-2010 01:00:00;20,40
20-12-2010 01:15:00;20,60
20-12-2010 01:30:00;20,60
20-12-2010 01:45:00;20,60
20-12-2010 02:00:00;20,60
20-12-2010 02:15:00;20,60
20-12-2010 02:30:00;20,50
20-12-2010 02:45:00;20,40
20-12-2010 03:00:00;19,70
20-12-2010 03:15:00;18,90
20-12-2010 03:30:00;19,20
20-12-2010 03:45:00;19,30
20-12-2010 04:00:00;19,40
20-12-2010 04:15:00;19,60
20-12-2010 04:30:00;19,60
20-12-2010 04:45:00;19,70
20-12-2010 05:00:00;20,00
20-12-2010 05:15:00;19,70
20-12-2010 05:30:00;19,30
20-12-2010 05:45:00;19,50
20-12-2010 06:00:00;19,70
20-12-2010 06:15:00;19,50
20-12-2010 06:30:00;19,60
20-12-2010 06:45:00;19,60
20-12-2010 07:00:00;19,60
20-12-2010 07:15:00;19,50
20-12-2010 07:30:00;19,60
20-12-2010 07:45:00;19,60
20-12-2010 08:00:00;19,60
20-12-2010 08:15:00;19,40
20-12-2010 08:30:00;19,30
20-12-2010 08:45:00;19,10
20-12-2010 09:00:00;18,80
20-12-2010 09:15:00;18,80
20-12-2010 09:30:00;18,80
20-12-2010 09:45:00;18,60
20-12-2010 10:00:00;18,40
20-12-2010 10:15:00;18,60
20-12-2010 10:30:00;18,40
20-12-2010 10:45:00;18,50
20-12-2010 11:00:00;17,50
20-12-2010 11:15:00;17,20
20-12-2010 11:30:00;17,60
20-12-2010 11:45:00;17,90
20-12-2010 12:00:00;18,20
20-12-2010 12:15:00;18,20
20-12-2010 12:30:00;17,80
20-12-2010 12:45:00;17,60
20-12-2010 13:00:00;18,10
20-12-2010 13:15:00;18,10
20-12-2010 13:30:00;18,40
20-12-2010 13:45:00;19,00
20-12-2010 14:00:00;19,10
20-12-2010 14:15:00;19,60
20-12-2010 14:30:00;19,60
20-12-2010 14:45:00;19,60
20-12-2010 15:30:00;19,60
20-12-2010 15:45:00;19,80
20-12-2010 16:00:00;19,80
20-12-2010 16:15:00;20,00
20-12-2010 16:30:00;20,00
20-12-2010 16:45:00;20,20
20-12-2010 17:00:00;20,30
20-12-2010 17:15:00;20,40
20-12-2010 17:30:00;20,60
20-12-2010 17:45:00;20,80
20-12-2010 18:00:00;21,00
20-12-2010 18:15:00;21,30
20-12-2010 18:30:00;21,30
20-12-2010 18:45:00;21,40
20-12-2010 19:00:00;21,00
20-12-2010 19:15:00;20,10
20-12-2010 19:30:00;20,80
20-12-2010 19:45:00;21,10
20-12-2010 20:00:00;21,10
20-12-2010 20:15:00;21,30
20-12-2010 20:30:00;21,40
20-12-2010 20:45:00;21,50
20-12-2010 21:00:00;21,70
20-12-2010 21:15:00;21,60
20-12-2010 21:30:00;21,60
20-12-2010 21:45:00;21,70
20-12-2010 22:00:00;21,90
20-12-2010 22:15:00;21,90
20-12-2010 22:30:00;22,20
20-12-2010 22:45:00;22,40
20-12-2010 23:00:00;22,30
20-12-2010 23:15:00;22,40
20-12-2010 23:30:00;22,40
20-12-2010 23:45:00;22,60
21-12-2010 00:00:00;22,60
21-12-2010 00:15:00;22,70
21-12-2010 00:30:00;22,60
21-12-2010 00:45:00;23,00
21-12-2010 01:00:00;23,10
21-12-2010 01:15:00;23,20
21-12-2010 01:30:00;23,10
21-12-2010 01:45:00;22,70
21-12-2010 02:00:00;22,50
21-12-2010 02:15:00;22,40
21-12-2010 02:30:00;22,40
21-12-2010 02:45:00;22,30
21-12-2010 03:00:00;21,50
21-12-2010 03:15:00;20,80
21-12-2010 03:30:00;20,90
21-12-2010 03:45:00;20,80
21-12-2010 04:00:00;20,70
21-12-2010 04:15:00;20,80
21-12-2010 04:30:00;20,80
21-12-2010 04:45:00;21,00
21-12-2010 05:00:00;20,90
21-12-2010 05:15:00;20,90
21-12-2010 05:30:00;21,10
21-12-2010 05:45:00;21,00
21-12-2010 06:00:00;21,00
21-12-2010 06:15:00;21,00
21-12-2010 06:30:00;21,00
21-12-2010 06:45:00;21,00
21-12-2010 07:00:00;21,00
21-12-2010 07:15:00;21,00
21-12-2010 07:30:00;21,00
21-12-2010 07:45:00;21,00
21-12-2010 08:00:00;21,20
21-12-2010 08:15:00;21,10
21-12-2010 08:30:00;21,40
21-12-2010 08:45:00;21,20
21-12-2010 09:00:00;20,80
21-12-2010 09:15:00;20,80
21-12-2010 09:30:00;20,80
21-12-2010 09:45:00;20,80
21-12-2010 10:00:00;20,70
21-12-2010 10:15:00;20,70
21-12-2010 10:30:00;20,70
21-12-2010 10:45:00;20,90
21-12-2010 11:00:00;20,00
21-12-2010 11:15:00;19,50
21-12-2010 11:30:00;19,40
21-12-2010 11:45:00;19,70
21-12-2010 12:00:00;19,60
21-12-2010 12:15:00;19,60
21-12-2010 12:30:00;19,90
21-12-2010 12:45:00;19,90
21-12-2010 13:00:00;20,10
21-12-2010 13:15:00;20,40
21-12-2010 13:30:00;20,50
21-12-2010 13:45:00;20,50
21-12-2010 14:00:00;20,50
21-12-2010 14:15:00;20,70
21-12-2010 14:30:00;20,80
21-12-2010 14:45:00;21,00
21-12-2010 15:00:00;21,20
21-12-2010 15:15:00;21,60
21-12-2010 15:30:00;21,80
21-12-2010 15:45:00;21,70
21-12-2010 16:00:00;21,90
21-12-2010 16:15:00;22,00
21-12-2010 16:30:00;22,20
21-12-2010 16:45:00;22,30
21-12-2010 17:00:00;22,20
21-12-2010 17:15:00;22,40
21-12-2010 17:30:00;22,50
21-12-2010 17:45:00;22,60
21-12-2010 18:00:00;22,80
21-12-2010 18:15:00;22,80
21-12-2010 18:30:00;23,00
21-12-2010 18:45:00;23,30
21-12-2010 19:00:00;22,40
21-12-2010 19:15:00;21,80
21-12-2010 19:30:00;22,60
21-12-2010 19:45:00;22,60
21-12-2010 20:00:00;22,60
21-12-2010 20:15:00;22,60
21-12-2010 20:30:00;22,70
21-12-2010 20:45:00;23,00
21-12-2010 21:00:00;23,30
21-12-2010 21:15:00;23,50
21-12-2010 21:30:00;23,60
21-12-2010 21:45:00;24,60
21-12-2010 22:00:00;24,20
21-12-2010 22:15:00;23,70
21-12-2010 22:30:00;23,60
21-12-2010 22:45:00;24,10
21-12-2010 23:00:00;23,90
21-12-2010 23:15:00;24,00
21-12-2010 23:30:00;24,20
21-12-2010 23:45:00;24,20
22-12-2010 00:00:00;24,30
22-12-2010 00:15:00;24,10
22-12-2010 00:30:00;24,20
22-12-2010 00:45:00;24,30
22-12-2010 01:00:00;24,40
22-12-2010 01:15:00;24,80
22-12-2010 01:30:00;25,00
22-12-2010 01:45:00;24,80
22-12-2010 02:00:00;24,80
22-12-2010 02:15:00;25,20
22-12-2010 02:30:00;25,10
22-12-2010 02:45:00;25,00
22-12-2010 03:00:00;23,90
22-12-2010 03:15:00;23,20
22-12-2010 03:30:00;23,90
22-12-2010 03:45:00;24,00
22-12-2010 04:00:00;24,30
22-12-2010 04:15:00;24,50
22-12-2010 04:30:00;24,60
22-12-2010 04:45:00;25,10
22-12-2010 05:00:00;24,90
22-12-2010 05:15:00;25,10
22-12-2010 05:30:00;24,80
22-12-2010 05:45:00;24,90
22-12-2010 06:00:00;25,20
22-12-2010 06:15:00;25,00
22-12-2010 06:30:00;25,10
22-12-2010 06:45:00;25,40
22-12-2010 07:00:00;25,40
22-12-2010 07:15:00;25,30
22-12-2010 07:30:00;25,30
22-12-2010 07:45:00;25,50
22-12-2010 08:00:00;25,30
22-12-2010 08:15:00;25,50
22-12-2010 08:30:00;25,20
22-12-2010 08:45:00;25,20
22-12-2010 09:00:00;25,10
22-12-2010 09:15:00;25,00
22-12-2010 09:30:00;25,00
22-12-2010 09:45:00;25,20
22-12-2010 10:00:00;24,90
22-12-2010 10:15:00;24,90
22-12-2010 10:30:00;25,10
22-12-2010 10:45:00;24,80
22-12-2010 11:00:00;23,90
22-12-2010 11:15:00;23,40
22-12-2010 11:30:00;23,80
22-12-2010 11:45:00;23,80
22-12-2010 12:00:00;23,80
22-12-2010 12:15:00;24,00
22-12-2010 12:30:00;24,20
22-12-2010 12:45:00;24,30
22-12-2010 13:00:00;24,30
22-12-2010 13:15:00;24,40
22-12-2010 13:30:00;24,30
22-12-2010 13:45:00;24,60
22-12-2010 14:00:00;24,90
22-12-2010 14:15:00;24,80
22-12-2010 14:30:00;25,00
22-12-2010 14:45:00;25,20
22-12-2010 15:00:00;25,60
22-12-2010 15:15:00;25,50
22-12-2010 15:30:00;25,50
22-12-2010 15:45:00;26,00
22-12-2010 16:00:00;26,10
22-12-2010 16:15:00;26,00
22-12-2010 16:30:00;26,10
22-12-2010 16:45:00;26,40
22-12-2010 17:00:00;26,60
22-12-2010 17:15:00;26,50
22-12-2010 17:30:00;26,90
22-12-2010 17:45:00;27,30
22-12-2010 18:00:00;27,00
22-12-2010 18:15:00;26,80
22-12-2010 18:30:00;26,90
22-12-2010 18:45:00;27,10
22-12-2010 19:00:00;26,70
22-12-2010 19:15:00;26,20
22-12-2010 19:30:00;26,90
22-12-2010 19:45:00;27,20
22-12-2010 20:00:00;27,30
22-12-2010 20:15:00;27,40
22-12-2010 21:45:00;28,10
22-12-2010 22:00:00;27,80
22-12-2010 22:15:00;28,70
22-12-2010 22:30:00;30,00
22-12-2010 22:45:00;29,40
22-12-2010 23:00:00;28,90
22-12-2010 23:15:00;28,70
22-12-2010 23:30:00;28,60
22-12-2010 23:45:00;29,00
23-12-2010 00:00:00;28,60
23-12-2010 00:15:00;28,40
23-12-2010 00:30:00;28,50
23-12-2010 00:45:00;28,60
23-12-2010 01:00:00;29,10
23-12-2010 01:15:00;28,80
23-12-2010 01:30:00;28,90
23-12-2010 01:45:00;29,00
23-12-2010 02:00:00;28,90
23-12-2010 02:15:00;29,10
23-12-2010 02:30:00;29,00
23-12-2010 02:45:00;29,20
23-12-2010 03:00:00;28,30
23-12-2010 03:15:00;27,20
23-12-2010 03:30:00;27,40
23-12-2010 03:45:00;27,40
23-12-2010 04:00:00;27,90
23-12-2010 04:15:00;28,00
23-12-2010 04:30:00;28,00
23-12-2010 04:45:00;28,00
23-12-2010 05:00:00;28,20
23-12-2010 05:15:00;28,30
23-12-2010 05:30:00;28,20
23-12-2010 05:45:00;28,10
23-12-2010 06:00:00;27,90
23-12-2010 06:15:00;28,40
23-12-2010 06:30:00;28,20
23-12-2010 06:45:00;28,70
23-12-2010 07:00:00;28,80
23-12-2010 07:15:00;28,90
23-12-2010 07:30:00;29,00
23-12-2010 07:45:00;29,10
23-12-2010 08:00:00;29,10
23-12-2010 08:15:00;29,20
23-12-2010 08:30:00;29,60
23-12-2010 08:45:00;29,40
23-12-2010 09:00:00;29,60
23-12-2010 09:15:00;29,90
23-12-2010 09:30:00;29,50
23-12-2010 09:45:00;29,20
23-12-2010 10:00:00;29,20
23-12-2010 10:15:00;30,70
23-12-2010 10:30:00;30,20
23-12-2010 10:45:00;29,90
23-12-2010 11:00:00;29,10
23-12-2010 15:00:00;17,00
23-12-2010 15:15:00;16,60
23-12-2010 15:30:00;16,60
23-12-2010 15:45:00;16,40
23-12-2010 16:00:00;16,40
23-12-2010 16:15:00;16,50
23-12-2010 16:30:00;16,40
23-12-2010 16:45:00;16,40
23-12-2010 17:00:00;16,30
23-12-2010 17:15:00;16,60
23-12-2010 17:30:00;16,70
23-12-2010 17:45:00;16,60
23-12-2010 18:00:00;16,60
23-12-2010 18:15:00;16,90
23-12-2010 18:30:00;16,80
23-12-2010 18:45:00;17,00
23-12-2010 19:00:00;17,20
23-12-2010 19:15:00;16,90
23-12-2010 19:30:00;17,20
23-12-2010 19:45:00;17,20
23-12-2010 20:00:00;17,30
23-12-2010 20:15:00;17,40
23-12-2010 20:30:00;16,70
23-12-2010 20:45:00;15,90
23-12-2010 21:00:00;16,00
23-12-2010 21:15:00;16,10
23-12-2010 21:30:00;16,40
23-12-2010 21:45:00;16,70
23-12-2010 22:00:00;16,60
23-12-2010 22:15:00;16,60
23-12-2010 22:30:00;16,60
23-12-2010 22:45:00;17,10
23-12-2010 23:00:00;17,20
23-12-2010 23:15:00;17,10
23-12-2010 23:30:00;16,80
23-12-2010 23:45:00;16,90
24-12-2010 00:00:00;17,00
24-12-2010 00:15:00;16,80
24-12-2010 00:30:00;17,20
24-12-2010 00:45:00;17,90
24-12-2010 01:00:00;17,90
24-12-2010 01:15:00;17,90
24-12-2010 01:30:00;17,70
24-12-2010 01:45:00;17,20
24-12-2010 02:00:00;17,20
24-12-2010 02:15:00;17,20
24-12-2010 02:30:00;17,10
24-12-2010 02:45:00;17,20
24-12-2010 03:00:00;17,60
24-12-2010 03:15:00;17,30
24-12-2010 03:30:00;17,20
24-12-2010 03:45:00;17,00
24-12-2010 04:00:00;17,00
24-12-2010 04:15:00;16,90
24-12-2010 04:30:00;15,90
24-12-2010 04:45:00;14,90
24-12-2010 05:00:00;15,30
24-12-2010 05:15:00;15,20
24-12-2010 05:30:00;15,40
24-12-2010 05:45:00;15,50
24-12-2010 06:00:00;15,60
24-12-2010 06:15:00;15,60
24-12-2010 06:30:00;15,60
24-12-2010 06:45:00;16,00
24-12-2010 07:00:00;15,90
24-12-2010 07:15:00;15,80
24-12-2010 07:30:00;16,00
24-12-2010 07:45:00;15,80
24-12-2010 08:00:00;15,90
24-12-2010 08:15:00;16,00
24-12-2010 08:30:00;15,70
24-12-2010 08:45:00;16,10
24-12-2010 09:00:00;15,70
24-12-2010 09:15:00;15,20
24-12-2010 09:30:00;15,20
24-12-2010 09:45:00;15,20
24-12-2010 10:00:00;15,30
24-12-2010 10:15:00;15,30
24-12-2010 10:30:00;15,20
24-12-2010 10:45:00;15,30
24-12-2010 11:00:00;15,20
24-12-2010 13:45:00;14,40
24-12-2010 14:00:00;14,30
24-12-2010 14:15:00;14,10
24-12-2010 14:30:00;14,20
24-12-2010 14:45:00;14,50
24-12-2010 15:00:00;14,50
24-12-2010 15:15:00;14,80
24-12-2010 15:30:00;14,80
24-12-2010 15:45:00;15,00
24-12-2010 16:00:00;15,00
24-12-2010 16:15:00;15,20
24-12-2010 16:30:00;15,40
24-12-2010 16:45:00;15,50
24-12-2010 17:00:00;15,80
24-12-2010 17:15:00;15,60
24-12-2010 17:30:00;16,00
24-12-2010 17:45:00;15,90
24-12-2010 18:00:00;16,00
24-12-2010 18:15:00;16,40
24-12-2010 18:30:00;16,40
24-12-2010 18:45:00;16,40
24-12-2010 19:00:00;16,40
24-12-2010 19:15:00;16,40
24-12-2010 19:30:00;16,80
24-12-2010 19:45:00;16,90
24-12-2010 20:00:00;15,80
24-12-2010 20:15:00;15,40
24-12-2010 20:30:00;15,80
24-12-2010 20:45:00;16,30
24-12-2010 21:00:00;16,50
24-12-2010 21:15:00;16,60
24-12-2010 21:30:00;16,70
24-12-2010 21:45:00;16,90
24-12-2010 22:00:00;16,60
24-12-2010 22:15:00;17,00
24-12-2010 22:30:00;16,50
24-12-2010 22:45:00;16,70
24-12-2010 23:00:00;17,20
24-12-2010 23:15:00;17,70
24-12-2010 23:30:00;17,30
24-12-2010 23:45:00;16,90
25-12-2010 00:00:00;17,30
25-12-2010 00:15:00;17,60
25-12-2010 00:30:00;17,70
25-12-2010 00:45:00;18,20
25-12-2010 01:00:00;18,00
25-12-2010 01:15:00;18,50
25-12-2010 01:30:00;18,20
25-12-2010 01:45:00;18,40
25-12-2010 02:00:00;18,50
25-12-2010 02:15:00;18,90
25-12-2010 02:30:00;18,80
25-12-2010 02:45:00;19,00
25-12-2010 03:00:00;19,20
25-12-2010 03:15:00;19,20
25-12-2010 03:30:00;19,00
25-12-2010 03:45:00;19,50
25-12-2010 04:00:00;18,70
25-12-2010 04:15:00;18,40
25-12-2010 04:30:00;18,60
25-12-2010 04:45:00;19,50
25-12-2010 05:00:00;19,20
25-12-2010 05:45:00;20,00
25-12-2010 06:00:00;20,50
25-12-2010 06:15:00;21,40
25-12-2010 06:30:00;21,40
25-12-2010 06:45:00;21,50
25-12-2010 07:00:00;21,60
25-12-2010 07:15:00;21,90
25-12-2010 07:30:00;22,20
25-12-2010 07:45:00;22,40
25-12-2010 08:00:00;23,00
25-12-2010 08:15:00;22,80
25-12-2010 08:30:00;22,50
25-12-2010 08:45:00;22,40
25-12-2010 09:00:00;22,40
25-12-2010 09:15:00;22,20
25-12-2010 09:30:00;22,40
25-12-2010 09:45:00;22,70
25-12-2010 10:00:00;22,80
25-12-2010 10:15:00;23,50
25-12-2010 10:30:00;23,30
25-12-2010 10:45:00;23,60
25-12-2010 11:00:00;23,50
25-12-2010 11:15:00;23,60
25-12-2010 11:30:00;23,90
25-12-2010 11:45:00;24,10
25-12-2010 12:00:00;22,80
25-12-2010 12:15:00;22,40
25-12-2010 12:30:00;23,60
25-12-2010 12:45:00;23,40
25-12-2010 13:00:00;23,90
25-12-2010 13:15:00;23,70
25-12-2010 13:30:00;24,10
25-12-2010 13:45:00;24,10
25-12-2010 14:00:00;24,00
25-12-2010 14:15:00;24,60
25-12-2010 14:30:00;24,80
25-12-2010 14:45:00;25,00
25-12-2010 15:00:00;25,20
25-12-2010 15:15:00;25,10
25-12-2010 15:30:00;25,20
25-12-2010 15:45:00;25,20
25-12-2010 16:00:00;25,60
25-12-2010 16:15:00;26,10
25-12-2010 16:30:00;25,50
25-12-2010 16:45:00;25,60
25-12-2010 17:00:00;25,80
25-12-2010 17:15:00;26,00
25-12-2010 17:30:00;26,40
25-12-2010 17:45:00;26,50
25-12-2010 18:00:00;25,90
25-12-2010 18:15:00;26,60
25-12-2010 18:30:00;26,50
25-12-2010 18:45:00;26,80
25-12-2010 19:00:00;27,40
25-12-2010 19:15:00;27,90
25-12-2010 19:30:00;28,20
25-12-2010 19:45:00;28,50
25-12-2010 20:00:00;28,10
25-12-2010 20:15:00;27,70
25-12-2010 20:30:00;27,00
25-12-2010 20:45:00;26,70
25-12-2010 21:00:00;26,50
25-12-2010 21:15:00;26,90
25-12-2010 21:30:00;27,40
25-12-2010 21:45:00;27,40
25-12-2010 22:00:00;27,40
25-12-2010 22:15:00;27,70
25-12-2010 22:30:00;27,40
25-12-2010 22:45:00;27,30
25-12-2010 23:00:00;28,20
25-12-2010 23:15:00;27,40
25-12-2010 23:30:00;28,30
25-12-2010 23:45:00;28,20
26-12-2010 00:00:00;28,40
26-12-2010 00:15:00;29,10
26-12-2010 00:30:00;29,60
26-12-2010 00:45:00;30,10
26-12-2010 01:00:00;29,90
26-12-2010 01:15:00;30,80
26-12-2010 01:30:00;30,90
26-12-2010 01:45:00;31,60
26-12-2010 02:00:00;32,00
26-12-2010 02:15:00;32,80
26-12-2010 02:30:00;32,70
26-12-2010 02:45:00;33,20
26-12-2010 03:00:00;33,50
26-12-2010 03:15:00;34,10
26-12-2010 03:30:00;35,40
26-12-2010 03:45:00;35,40
26-12-2010 04:00:00;34,70
26-12-2010 04:15:00;34,40
26-12-2010 04:30:00;35,70
26-12-2010 04:45:00;36,40
26-12-2010 05:00:00;36,90
26-12-2010 05:15:00;37,70
26-12-2010 05:30:00;38,30
26-12-2010 05:45:00;39,10
26-12-2010 06:00:00;39,20
26-12-2010 06:15:00;39,90
26-12-2010 06:30:00;40,40
26-12-2010 06:45:00;40,70
26-12-2010 07:00:00;40,60
26-12-2010 14:15:00;42,40
26-12-2010 14:30:00;42,50
26-12-2010 14:45:00;42,20
26-12-2010 15:00:00;42,10
26-12-2010 15:15:00;42,30
26-12-2010 15:30:00;42,10
26-12-2010 15:45:00;41,90
26-12-2010 16:00:00;41,90
26-12-2010 16:15:00;42,00
26-12-2010 16:30:00;41,50
26-12-2010 16:45:00;41,40
26-12-2010 17:00:00;41,30
26-12-2010 17:15:00;40,80
26-12-2010 17:30:00;41,20
26-12-2010 17:45:00;40,50
26-12-2010 18:00:00;40,80
26-12-2010 18:15:00;40,10
26-12-2010 18:30:00;40,10
26-12-2010 18:45:00;39,80
26-12-2010 19:00:00;39,60
26-12-2010 19:15:00;39,40
26-12-2010 19:45:00;38,90
26-12-2010 20:00:00;37,80
26-12-2010 20:15:00;37,30
26-12-2010 20:30:00;38,00
26-12-2010 20:45:00;37,90
26-12-2010 21:00:00;37,70
26-12-2010 21:15:00;37,30
26-12-2010 21:30:00;37,00
26-12-2010 21:45:00;36,80
26-12-2010 22:00:00;36,70
26-12-2010 22:15:00;36,40
26-12-2010 22:30:00;36,10
26-12-2010 22:45:00;36,10
26-12-2010 23:00:00;35,60
26-12-2010 23:15:00;35,50
26-12-2010 23:30:00;35,50
26-12-2010 23:45:00;35,30
27-12-2010 00:00:00;35,00
27-12-2010 00:15:00;34,60
27-12-2010 00:30:00;34,40
27-12-2010 00:45:00;34,40
27-12-2010 01:00:00;34,20
27-12-2010 01:15:00;34,00
27-12-2010 01:30:00;33,70
27-12-2010 01:45:00;33,60
27-12-2010 02:00:00;33,40
27-12-2010 02:15:00;33,50
27-12-2010 02:30:00;33,50
27-12-2010 02:45:00;32,90
27-12-2010 03:00:00;32,70
27-12-2010 03:15:00;32,60
27-12-2010 03:30:00;32,30
27-12-2010 03:45:00;32,20
27-12-2010 04:00:00;31,40
27-12-2010 04:15:00;31,10
27-12-2010 04:30:00;31,40
27-12-2010 04:45:00;31,50
27-12-2010 05:00:00;31,30
27-12-2010 05:15:00;31,20
27-12-2010 05:30:00;31,70
27-12-2010 05:45:00;31,00
27-12-2010 06:00:00;31,00
27-12-2010 06:15:00;31,20
27-12-2010 06:30:00;30,90
27-12-2010 06:45:00;30,90
27-12-2010 07:00:00;30,90
27-12-2010 07:15:00;30,60
27-12-2010 07:45:00;30,40
27-12-2010 08:00:00;30,30
27-12-2010 08:15:00;30,30
27-12-2010 08:30:00;30,60
27-12-2010 08:45:00;30,30
27-12-2010 09:00:00;30,40
27-12-2010 09:15:00;30,10
27-12-2010 09:30:00;30,10
27-12-2010 09:45:00;30,20
27-12-2010 10:00:00;30,10
27-12-2010 10:15:00;30,20
27-12-2010 10:30:00;30,00
27-12-2010 10:45:00;29,80
27-12-2010 11:00:00;29,60
27-12-2010 11:15:00;29,80
27-12-2010 11:30:00;30,00
27-12-2010 11:45:00;29,70
27-12-2010 12:00:00;28,80
27-12-2010 12:15:00;28,70
27-12-2010 12:30:00;29,00
27-12-2010 12:45:00;29,20
27-12-2010 13:00:00;29,60
27-12-2010 13:15:00;29,60
27-12-2010 13:30:00;29,20
27-12-2010 13:45:00;29,20
27-12-2010 14:00:00;29,20
27-12-2010 14:15:00;29,20
27-12-2010 14:30:00;29,40
27-12-2010 14:45:00;29,20
27-12-2010 15:00:00;29,60
27-12-2010 15:15:00;29,30
27-12-2010 15:30:00;29,20
27-12-2010 15:45:00;29,30
27-12-2010 16:00:00;28,90
27-12-2010 16:15:00;28,80
27-12-2010 16:30:00;28,90
27-12-2010 16:45:00;29,00
27-12-2010 17:00:00;29,00
27-12-2010 17:15:00;28,90
27-12-2010 17:30:00;29,10
27-12-2010 18:00:00;28,80
27-12-2010 18:15:00;28,80
27-12-2010 18:30:00;28,90
27-12-2010 18:45:00;28,50
27-12-2010 19:00:00;28,30
27-12-2010 19:15:00;28,10
27-12-2010 19:30:00;28,20
27-12-2010 19:45:00;27,90
27-12-2010 20:00:00;26,90
27-12-2010 20:15:00;26,70
27-12-2010 20:30:00;27,50
27-12-2010 20:45:00;27,30
27-12-2010 21:00:00;27,20
27-12-2010 21:15:00;27,20
27-12-2010 21:30:00;27,20
27-12-2010 21:45:00;27,10
27-12-2010 22:00:00;27,10
27-12-2010 22:15:00;27,20
27-12-2010 22:30:00;27,00
27-12-2010 22:45:00;27,20
27-12-2010 23:00:00;27,00
27-12-2010 23:15:00;27,00
27-12-2010 23:30:00;27,20
27-12-2010 23:45:00;26,60
28-12-2010 00:00:00;26,60
28-12-2010 00:15:00;26,50
28-12-2010 00:30:00;26,40
28-12-2010 00:45:00;26,50
28-12-2010 01:00:00;26,20
28-12-2010 01:15:00;26,50
28-12-2010 01:30:00;26,30
28-12-2010 01:45:00;26,30
28-12-2010 02:00:00;26,30
28-12-2010 02:15:00;26,10
28-12-2010 02:30:00;26,20
28-12-2010 02:45:00;26,10
28-12-2010 03:00:00;25,90
28-12-2010 03:15:00;25,60
28-12-2010 03:30:00;25,80
28-12-2010 03:45:00;25,50
28-12-2010 04:00:00;24,80
28-12-2010 04:15:00;24,50
28-12-2010 04:30:00;24,90
28-12-2010 04:45:00;25,00
28-12-2010 05:00:00;25,00
28-12-2010 05:15:00;25,00
28-12-2010 05:30:00;25,20
28-12-2010 05:45:00;24,90
28-12-2010 06:00:00;25,00
28-12-2010 06:15:00;24,80
28-12-2010 06:30:00;24,80
28-12-2010 06:45:00;24,60
28-12-2010 07:00:00;25,00
28-12-2010 07:15:00;24,90
28-12-2010 07:30:00;25,00
28-12-2010 07:45:00;25,00
28-12-2010 08:00:00;25,20
28-12-2010 08:15:00;24,80
28-12-2010 09:15:00;25,20
28-12-2010 09:30:00;24,80
28-12-2010 09:45:00;24,40
28-12-2010 10:00:00;24,30
28-12-2010 10:15:00;24,20
28-12-2010 10:30:00;24,10
28-12-2010 10:45:00;24,40
28-12-2010 11:00:00;24,30
28-12-2010 11:15:00;24,20
28-12-2010 11:30:00;24,20
28-12-2010 11:45:00;24,10
28-12-2010 12:00:00;23,70
28-12-2010 12:15:00;23,60
28-12-2010 12:30:00;23,30
28-12-2010 12:45:00;23,60
28-12-2010 13:00:00;23,60
28-12-2010 13:15:00;23,50
28-12-2010 13:30:00;23,50
28-12-2010 13:45:00;23,50
28-12-2010 14:00:00;23,50
28-12-2010 14:15:00;23,60
28-12-2010 14:30:00;23,40
28-12-2010 14:45:00;23,30
28-12-2010 15:00:00;23,40
28-12-2010 15:15:00;23,40
28-12-2010 15:30:00;23,30
28-12-2010 15:45:00;23,40
28-12-2010 16:00:00;23,40
28-12-2010 16:15:00;23,60
28-12-2010 16:30:00;23,50
28-12-2010 16:45:00;23,60
28-12-2010 17:00:00;23,40
28-12-2010 17:15:00;23,50
28-12-2010 17:30:00;23,50
28-12-2010 17:45:00;23,70
28-12-2010 18:00:00;23,60
28-12-2010 18:15:00;23,80
28-12-2010 18:30:00;23,60
28-12-2010 19:15:00;23,70
28-12-2010 19:30:00;23,50
28-12-2010 19:45:00;23,80
28-12-2010 20:00:00;23,50
28-12-2010 20:15:00;23,40
28-12-2010 20:30:00;23,20
28-12-2010 20:45:00;23,40
28-12-2010 21:00:00;24,00
28-12-2010 21:15:00;23,40
28-12-2010 21:30:00;23,40
28-12-2010 21:45:00;23,40
28-12-2010 22:00:00;24,10
28-12-2010 22:15:00;23,40
28-12-2010 22:30:00;23,30
28-12-2010 22:45:00;23,30
28-12-2010 23:00:00;24,40
28-12-2010 23:15:00;23,30
28-12-2010 23:30:00;23,20
28-12-2010 23:45:00;23,30
29-12-2010 00:00:00;24,20
29-12-2010 00:15:00;23,20
29-12-2010 00:30:00;23,20
29-12-2010 00:45:00;23,40
29-12-2010 01:00:00;24,70
29-12-2010 01:15:00;23,20
29-12-2010 01:30:00;23,10
29-12-2010 01:45:00;23,30
29-12-2010 02:00:00;24,70
29-12-2010 02:15:00;23,10
29-12-2010 02:30:00;23,10
29-12-2010 02:45:00;23,00
29-12-2010 03:00:00;24,30
29-12-2010 03:15:00;23,00
29-12-2010 03:30:00;23,00
29-12-2010 03:45:00;23,20
29-12-2010 04:00:00;23,20
29-12-2010 04:15:00;23,00
29-12-2010 04:30:00;22,90
29-12-2010 04:45:00;23,00
29-12-2010 05:00:00;23,80
29-12-2010 05:15:00;22,70
29-12-2010 05:30:00;22,70
29-12-2010 05:45:00;22,60
29-12-2010 06:00:00;23,40
29-12-2010 06:15:00;22,40
29-12-2010 06:30:00;22,60
29-12-2010 07:30:00;22,40
29-12-2010 07:45:00;22,20
29-12-2010 08:00:00;22,20
29-12-2010 08:15:00;22,20
29-12-2010 08:30:00;22,30
29-12-2010 08:45:00;22,10
29-12-2010 09:00:00;22,20
29-12-2010 09:15:00;22,40
29-12-2010 09:30:00;22,30
29-12-2010 09:45:00;22,20
29-12-2010 10:00:00;22,20
29-12-2010 10:15:00;21,90
29-12-2010 10:30:00;22,30
29-12-2010 10:45:00;22,70
29-12-2010 11:00:00;22,70
29-12-2010 11:15:00;22,30
29-12-2010 11:30:00;22,40
29-12-2010 11:45:00;22,30
29-12-2010 12:00:00;22,20
29-12-2010 12:15:00;22,20
29-12-2010 12:30:00;22,00
29-12-2010 12:45:00;22,10
29-12-2010 13:00:00;22,10
29-12-2010 13:15:00;22,00
29-12-2010 13:30:00;22,00
29-12-2010 13:45:00;22,00
29-12-2010 14:00:00;21,70
29-12-2010 14:15:00;21,90
29-12-2010 14:30:00;21,90
29-12-2010 14:45:00;22,10
29-12-2010 15:00:00;22,00
29-12-2010 15:15:00;22,30
29-12-2010 15:30:00;22,20
29-12-2010 15:45:00;22,20
29-12-2010 16:00:00;22,40
29-12-2010 16:15:00;22,60
29-12-2010 16:30:00;22,60
29-12-2010 16:45:00;22,80
29-12-2010 17:00:00;22,80
29-12-2010 17:45:00;22,90
29-12-2010 18:00:00;22,70
29-12-2010 18:15:00;22,70
29-12-2010 18:30:00;22,90
29-12-2010 18:45:00;23,30
29-12-2010 19:00:00;23,10
29-12-2010 19:15:00;23,10
29-12-2010 19:30:00;23,40
29-12-2010 19:45:00;23,70
29-12-2010 20:00:00;22,90
29-12-2010 20:15:00;22,90
29-12-2010 20:30:00;23,10
29-12-2010 20:45:00;23,40
29-12-2010 21:00:00;23,50
29-12-2010 21:15:00;23,40
29-12-2010 21:30:00;23,40
29-12-2010 21:45:00;23,80
29-12-2010 22:00:00;23,60
29-12-2010 22:15:00;23,60
29-12-2010 22:30:00;23,70
29-12-2010 22:45:00;24,00
29-12-2010 23:00:00;23,60
29-12-2010 23:15:00;23,80
29-12-2010 23:30:00;23,60
29-12-2010 23:45:00;23,90
30-12-2010 00:00:00;23,70
30-12-2010 00:15:00;23,50
30-12-2010 00:30:00;23,70
30-12-2010 00:45:00;23,80
30-12-2010 01:00:00;23,80
30-12-2010 01:15:00;23,60
30-12-2010 01:30:00;23,60
30-12-2010 01:45:00;23,60
30-12-2010 02:00:00;23,60
30-12-2010 02:15:00;23,70
30-12-2010 02:30:00;23,70
30-12-2010 02:45:00;23,90
30-12-2010 03:00:00;23,80
30-12-2010 03:15:00;23,70
30-12-2010 04:30:00;23,90
30-12-2010 04:45:00;23,80
30-12-2010 05:00:00;23,60
30-12-2010 05:15:00;23,60
30-12-2010 05:30:00;23,70
30-12-2010 05:45:00;23,40
30-12-2010 06:00:00;23,60
30-12-2010 06:15:00;23,70
30-12-2010 06:30:00;23,80
30-12-2010 06:45:00;23,80
30-12-2010 07:00:00;23,90
30-12-2010 07:15:00;23,80
30-12-2010 07:30:00;24,00
30-12-2010 07:45:00;24,10
30-12-2010 08:00:00;24,10
30-12-2010 08:15:00;24,30
30-12-2010 08:30:00;24,40
30-12-2010 08:45:00;24,20
30-12-2010 09:00:00;24,40
30-12-2010 09:15:00;24,30
30-12-2010 09:30:00;24,40
30-12-2010 09:45:00;24,30
30-12-2010 10:00:00;24,40
30-12-2010 10:15:00;24,50
30-12-2010 13:15:00;17,80
30-12-2010 14:00:00;17,70
30-12-2010 14:15:00;17,80
30-12-2010 14:30:00;17,80
30-12-2010 15:00:00;17,70
30-12-2010 15:15:00;17,90
30-12-2010 15:30:00;18,00
30-12-2010 16:00:00;18,10
30-12-2010 16:15:00;18,20
30-12-2010 16:30:00;18,60
30-12-2010 17:00:00;18,30
30-12-2010 17:15:00;18,30
30-12-2010 17:30:00;18,60
30-12-2010 18:00:00;18,50
30-12-2010 18:15:00;18,50
30-12-2010 18:30:00;18,70
30-12-2010 19:00:00;18,70
30-12-2010 19:15:00;18,70
30-12-2010 19:30:00;18,20
30-12-2010 19:45:00;17,90
30-12-2010 20:00:00;18,20
30-12-2010 20:15:00;18,30
30-12-2010 20:30:00;18,40
30-12-2010 21:00:00;18,60
30-12-2010 21:15:00;18,50
30-12-2010 21:30:00;18,80
30-12-2010 22:00:00;18,80
30-12-2010 22:15:00;19,10
30-12-2010 22:30:00;19,00
30-12-2010 23:00:00;19,10
30-12-2010 23:15:00;19,10
30-12-2010 23:30:00;19,00
31-12-2010 00:00:00;18,80
31-12-2010 00:15:00;18,80
31-12-2010 01:00:00;18,70
31-12-2010 01:15:00;18,80
31-12-2010 01:30:00;18,80
31-12-2010 02:00:00;18,80
31-12-2010 02:15:00;18,70
31-12-2010 02:30:00;18,80
31-12-2010 02:45:00;19,10
31-12-2010 03:00:00;18,60
31-12-2010 03:15:00;18,70
31-12-2010 03:30:00;18,50
31-12-2010 03:45:00;18,00
31-12-2010 04:00:00;18,10
31-12-2010 04:15:00;18,20
31-12-2010 04:30:00;18,20
31-12-2010 04:45:00;18,60
31-12-2010 05:00:00;18,20
31-12-2010 05:15:00;18,20
31-12-2010 05:30:00;18,50
31-12-2010 05:45:00;18,60
31-12-2010 06:00:00;18,30
31-12-2010 06:15:00;18,50
31-12-2010 06:30:00;18,60
31-12-2010 06:45:00;18,70
31-12-2010 07:00:00;18,50
31-12-2010 07:15:00;18,60
31-12-2010 07:30:00;18,70
31-12-2010 07:45:00;18,80
31-12-2010 08:00:00;18,50
31-12-2010 08:15:00;18,90
31-12-2010 08:30:00;18,80
31-12-2010 08:45:00;18,60
31-12-2010 09:00:00;18,30
31-12-2010 09:15:00;18,30
31-12-2010 09:30:00;18,50
31-12-2010 09:45:00;18,50
31-12-2010 10:00:00;18,40
31-12-2010 10:15:00;18,40
31-12-2010 10:30:00;18,40
31-12-2010 10:45:00;18,60
31-12-2010 11:00:00;18,60
31-12-2010 11:15:00;18,60
31-12-2010 11:30:00;18,40
31-12-2010 11:45:00;17,60
31-12-2010 12:00:00;17,70
31-12-2010 14:00:00;16,60
31-12-2010 14:15:00;16,60
31-12-2010 14:30:00;16,40
31-12-2010 14:45:00;16,60
31-12-2010 15:00:00;16,50
31-12-2010 15:15:00;16,60
31-12-2010 15:30:00;16,50
31-12-2010 15:45:00;16,70
31-12-2010 16:00:00;16,80
31-12-2010 16:15:00;16,70
31-12-2010 16:30:00;17,00
31-12-2010 16:45:00;17,00
31-12-2010 17:00:00;17,10
31-12-2010 17:15:00;17,20
31-12-2010 17:30:00;17,40
31-12-2010 17:45:00;17,20
31-12-2010 18:00:00;17,60
31-12-2010 18:15:00;17,60
31-12-2010 18:30:00;17,90
31-12-2010 18:45:00;18,10
31-12-2010 19:00:00;18,20
31-12-2010 19:15:00;18,40
31-12-2010 19:30:00;18,50
31-12-2010 19:45:00;18,30
31-12-2010 20:00:00;18,30
31-12-2010 20:15:00;18,50
31-12-2010 20:30:00;18,70
31-12-2010 20:45:00;18,70
31-12-2010 21:00:00;17,80
31-12-2010 21:15:00;18,20
31-12-2010 21:30:00;18,20
31-12-2010 21:45:00;18,30
31-12-2010 22:00:00;18,50
31-12-2010 22:15:00;18,60
31-12-2010 22:30:00;18,70
31-12-2010 22:45:00;18,80
31-12-2010 23:00:00;18,70
31-12-2010 23:15:00;19,20
31-12-2010 23:30:00;19,30
31-12-2010 23:45:00;19,10
