CONFEDERACIÓN HIDROGRÁFICA DEL EBRO
Red de alerta de calidad
Proyecto SAICA
Fichero de exportación de datos históricos.
No se incluyen valores considerados como <<no válidos>>.
906-Ebro en Ascó
Absorbancia 254nm (un.Abs/m)
Fecha inicial: 01-01-2005 00:00:00
Fecha final: 31-12-2010 23:59:59

Fecha;Valor
07-12-2010 14:30:00;6,20
07-12-2010 14:45:00;6,30
07-12-2010 15:00:00;6,40
07-12-2010 15:15:00;6,30
07-12-2010 15:30:00;6,30
07-12-2010 15:45:00;6,30
07-12-2010 16:00:00;6,30
07-12-2010 16:15:00;6,30
07-12-2010 16:30:00;6,00
07-12-2010 16:45:00;6,10
07-12-2010 17:00:00;6,10
07-12-2010 17:15:00;6,10
07-12-2010 17:30:00;6,00
07-12-2010 17:45:00;6,10
07-12-2010 18:00:00;6,00
07-12-2010 18:15:00;6,10
07-12-2010 18:30:00;6,20
07-12-2010 18:45:00;6,20
07-12-2010 19:00:00;6,00
07-12-2010 19:15:00;6,10
07-12-2010 19:30:00;6,10
07-12-2010 19:45:00;6,00
07-12-2010 20:00:00;5,80
07-12-2010 20:15:00;5,80
07-12-2010 20:30:00;5,90
07-12-2010 20:45:00;6,00
07-12-2010 21:00:00;6,00
07-12-2010 21:15:00;6,00
07-12-2010 21:30:00;6,00
07-12-2010 21:45:00;6,00
07-12-2010 22:00:00;6,00
07-12-2010 22:15:00;6,00
07-12-2010 22:30:00;5,90
07-12-2010 22:45:00;6,00
07-12-2010 23:00:00;5,90
07-12-2010 23:15:00;5,90
07-12-2010 23:30:00;6,00
08-12-2010 01:15:00;6,00
08-12-2010 01:30:00;5,90
08-12-2010 01:45:00;5,90
08-12-2010 02:15:00;5,90
08-12-2010 02:30:00;6,00
08-12-2010 02:45:00;6,00
08-12-2010 03:00:00;6,00
08-12-2010 03:15:00;5,90
08-12-2010 03:30:00;5,90
08-12-2010 03:45:00;6,10
08-12-2010 04:00:00;6,00
08-12-2010 04:15:00;6,00
08-12-2010 04:30:00;6,00
08-12-2010 04:45:00;6,10
08-12-2010 05:00:00;6,00
08-12-2010 05:15:00;6,00
08-12-2010 05:30:00;6,20
08-12-2010 05:45:00;6,10
08-12-2010 06:00:00;5,90
08-12-2010 06:15:00;5,90
08-12-2010 06:30:00;6,00
08-12-2010 06:45:00;5,90
08-12-2010 07:00:00;5,90
08-12-2010 07:15:00;5,80
08-12-2010 07:30:00;5,80
08-12-2010 07:45:00;5,80
08-12-2010 08:00:00;5,70
08-12-2010 08:15:00;5,60
08-12-2010 08:30:00;5,80
08-12-2010 08:45:00;5,90
08-12-2010 09:00:00;5,90
08-12-2010 09:15:00;5,90
08-12-2010 09:30:00;5,80
08-12-2010 09:45:00;5,90
08-12-2010 10:00:00;5,90
08-12-2010 10:15:00;5,80
08-12-2010 10:30:00;5,80
08-12-2010 10:45:00;5,70
08-12-2010 11:00:00;5,70
08-12-2010 11:15:00;5,60
08-12-2010 11:30:00;5,60
08-12-2010 11:45:00;5,80
08-12-2010 12:00:00;5,60
08-12-2010 12:45:00;5,20
08-12-2010 13:00:00;4,90
08-12-2010 13:15:00;4,60
08-12-2010 13:30:00;4,50
08-12-2010 13:45:00;4,30
08-12-2010 14:00:00;4,20
08-12-2010 14:15:00;4,00
08-12-2010 14:30:00;3,70
08-12-2010 14:45:00;3,70
08-12-2010 15:00:00;3,60
08-12-2010 15:15:00;3,50
08-12-2010 15:30:00;3,30
08-12-2010 15:45:00;3,20
08-12-2010 16:00:00;2,90
08-12-2010 16:15:00;3,10
08-12-2010 16:30:00;3,30
08-12-2010 16:45:00;3,30
08-12-2010 17:00:00;3,10
08-12-2010 17:15:00;3,30
08-12-2010 17:30:00;3,40
08-12-2010 17:45:00;3,40
08-12-2010 18:00:00;3,40
08-12-2010 18:15:00;3,40
08-12-2010 19:15:00;4,30
08-12-2010 19:30:00;4,80
08-12-2010 19:45:00;4,30
08-12-2010 20:00:00;3,90
08-12-2010 20:15:00;3,70
08-12-2010 20:30:00;3,70
08-12-2010 20:45:00;3,70
08-12-2010 21:00:00;3,80
08-12-2010 21:15:00;3,80
08-12-2010 21:30:00;3,90
08-12-2010 21:45:00;4,00
08-12-2010 22:00:00;4,00
08-12-2010 22:15:00;4,10
08-12-2010 22:30:00;4,00
08-12-2010 22:45:00;4,20
08-12-2010 23:00:00;4,20
08-12-2010 23:15:00;4,30
08-12-2010 23:30:00;4,30
08-12-2010 23:45:00;4,40
09-12-2010 00:00:00;4,30
09-12-2010 00:45:00;4,50
09-12-2010 01:00:00;4,60
09-12-2010 01:15:00;4,70
09-12-2010 01:30:00;4,60
09-12-2010 01:45:00;4,80
09-12-2010 02:00:00;4,90
09-12-2010 02:15:00;4,90
09-12-2010 02:30:00;5,00
09-12-2010 02:45:00;5,10
09-12-2010 03:00:00;5,10
09-12-2010 03:15:00;5,20
09-12-2010 03:30:00;5,20
09-12-2010 03:45:00;5,30
09-12-2010 04:00:00;5,30
09-12-2010 04:15:00;5,50
09-12-2010 04:30:00;5,50
09-12-2010 04:45:00;5,50
09-12-2010 05:00:00;5,50
09-12-2010 05:15:00;5,50
09-12-2010 05:30:00;5,50
09-12-2010 05:45:00;5,60
09-12-2010 06:00:00;5,60
09-12-2010 06:15:00;5,60
09-12-2010 06:30:00;5,60
09-12-2010 06:45:00;5,60
09-12-2010 07:00:00;5,60
09-12-2010 07:15:00;5,70
09-12-2010 07:30:00;5,70
09-12-2010 07:45:00;5,50
09-12-2010 08:00:00;5,60
09-12-2010 08:15:00;5,80
09-12-2010 08:30:00;5,90
09-12-2010 08:45:00;5,80
09-12-2010 09:00:00;5,90
09-12-2010 09:15:00;5,70
09-12-2010 09:30:00;5,80
09-12-2010 09:45:00;5,90
09-12-2010 10:00:00;5,90
09-12-2010 10:15:00;5,80
09-12-2010 10:30:00;5,90
09-12-2010 10:45:00;5,90
09-12-2010 11:00:00;5,90
09-12-2010 11:15:00;5,90
09-12-2010 12:45:00;5,20
09-12-2010 13:00:00;5,00
09-12-2010 13:15:00;5,20
09-12-2010 13:30:00;5,40
09-12-2010 13:45:00;5,10
09-12-2010 14:00:00;4,90
09-12-2010 14:15:00;4,90
09-12-2010 14:30:00;4,80
09-12-2010 14:45:00;4,90
09-12-2010 15:00:00;5,00
09-12-2010 15:15:00;5,10
09-12-2010 15:30:00;5,00
09-12-2010 15:45:00;5,10
09-12-2010 16:00:00;5,10
09-12-2010 16:15:00;5,00
09-12-2010 16:30:00;4,80
09-12-2010 16:45:00;5,00
09-12-2010 17:00:00;5,00
09-12-2010 17:15:00;4,80
09-12-2010 17:30:00;4,80
09-12-2010 17:45:00;4,90
09-12-2010 18:00:00;4,80
09-12-2010 18:15:00;4,40
09-12-2010 18:30:00;4,50
09-12-2010 18:45:00;4,60
09-12-2010 19:00:00;4,70
09-12-2010 19:15:00;5,20
09-12-2010 19:30:00;5,20
09-12-2010 19:45:00;5,40
09-12-2010 20:00:00;5,50
09-12-2010 20:15:00;5,20
09-12-2010 20:30:00;5,40
09-12-2010 20:45:00;5,60
09-12-2010 21:00:00;5,60
09-12-2010 21:15:00;5,60
09-12-2010 21:30:00;5,60
09-12-2010 21:45:00;5,90
09-12-2010 22:00:00;6,00
09-12-2010 22:15:00;6,00
09-12-2010 22:30:00;6,00
09-12-2010 22:45:00;5,90
09-12-2010 23:00:00;5,90
09-12-2010 23:15:00;6,10
09-12-2010 23:30:00;6,00
09-12-2010 23:45:00;6,00
10-12-2010 00:00:00;6,10
10-12-2010 00:45:00;6,40
10-12-2010 01:00:00;6,20
10-12-2010 01:15:00;6,20
10-12-2010 01:30:00;6,50
10-12-2010 01:45:00;6,50
10-12-2010 02:00:00;6,50
10-12-2010 02:15:00;6,40
10-12-2010 02:30:00;6,50
10-12-2010 02:45:00;6,60
10-12-2010 03:00:00;8,80
10-12-2010 03:15:00;9,50
10-12-2010 03:30:00;9,30
10-12-2010 03:45:00;9,00
10-12-2010 04:00:00;8,90
10-12-2010 04:15:00;8,20
10-12-2010 04:30:00;7,40
10-12-2010 04:45:00;7,30
10-12-2010 05:00:00;7,20
10-12-2010 05:15:00;7,10
10-12-2010 05:30:00;7,00
10-12-2010 05:45:00;7,10
10-12-2010 06:00:00;7,20
10-12-2010 06:15:00;7,10
10-12-2010 06:30:00;7,20
10-12-2010 06:45:00;7,20
10-12-2010 07:00:00;7,30
10-12-2010 07:15:00;7,30
10-12-2010 07:30:00;7,30
10-12-2010 07:45:00;7,30
10-12-2010 08:00:00;7,40
10-12-2010 08:15:00;7,50
10-12-2010 08:30:00;7,50
10-12-2010 08:45:00;7,50
10-12-2010 09:00:00;7,60
10-12-2010 09:15:00;7,60
10-12-2010 09:30:00;7,60
10-12-2010 09:45:00;7,70
10-12-2010 10:00:00;7,60
10-12-2010 10:15:00;7,60
10-12-2010 10:30:00;7,60
10-12-2010 11:00:00;7,60
10-12-2010 11:15:00;7,70
10-12-2010 11:30:00;7,50
10-12-2010 11:45:00;7,50
10-12-2010 12:00:00;7,50
10-12-2010 12:45:00;6,60
10-12-2010 13:00:00;6,40
10-12-2010 13:15:00;6,20
10-12-2010 13:30:00;6,00
10-12-2010 13:45:00;5,90
10-12-2010 14:00:00;5,80
10-12-2010 14:15:00;5,60
10-12-2010 14:30:00;5,60
10-12-2010 14:45:00;5,70
10-12-2010 15:00:00;5,70
10-12-2010 15:15:00;5,70
10-12-2010 15:30:00;5,60
10-12-2010 15:45:00;5,70
10-12-2010 16:00:00;5,80
10-12-2010 16:15:00;5,90
10-12-2010 16:30:00;5,80
10-12-2010 16:45:00;5,50
10-12-2010 17:00:00;5,40
10-12-2010 17:15:00;5,40
10-12-2010 17:30:00;5,50
10-12-2010 17:45:00;6,00
10-12-2010 18:00:00;6,30
10-12-2010 18:15:00;5,70
10-12-2010 18:30:00;5,60
10-12-2010 18:45:00;5,60
10-12-2010 19:00:00;5,70
10-12-2010 19:30:00;5,80
10-12-2010 19:45:00;5,90
10-12-2010 20:00:00;5,90
10-12-2010 20:15:00;5,90
10-12-2010 20:30:00;6,10
10-12-2010 20:45:00;6,10
10-12-2010 21:00:00;6,20
10-12-2010 21:15:00;6,40
10-12-2010 22:30:00;7,80
10-12-2010 22:45:00;7,60
10-12-2010 23:00:00;7,60
10-12-2010 23:15:00;7,80
10-12-2010 23:30:00;7,90
10-12-2010 23:45:00;8,20
11-12-2010 00:00:00;8,40
11-12-2010 00:45:00;8,20
11-12-2010 01:00:00;8,20
11-12-2010 01:15:00;8,20
11-12-2010 01:30:00;8,20
11-12-2010 01:45:00;8,20
11-12-2010 02:00:00;8,40
11-12-2010 02:15:00;8,10
11-12-2010 02:30:00;8,10
11-12-2010 02:45:00;8,20
11-12-2010 03:00:00;8,20
11-12-2010 04:45:00;7,90
11-12-2010 05:00:00;8,10
11-12-2010 05:15:00;8,00
11-12-2010 05:30:00;7,90
11-12-2010 05:45:00;7,90
11-12-2010 06:00:00;8,10
11-12-2010 06:15:00;8,50
11-12-2010 06:30:00;8,10
11-12-2010 06:45:00;8,00
11-12-2010 07:00:00;8,00
11-12-2010 07:15:00;8,00
11-12-2010 07:30:00;8,10
11-12-2010 07:45:00;8,00
11-12-2010 08:00:00;8,00
11-12-2010 08:15:00;8,10
11-12-2010 08:30:00;8,00
11-12-2010 08:45:00;8,30
11-12-2010 09:00:00;8,10
11-12-2010 09:15:00;7,90
11-12-2010 09:30:00;7,90
11-12-2010 09:45:00;8,00
11-12-2010 10:00:00;8,10
11-12-2010 10:15:00;8,00
11-12-2010 10:30:00;8,00
11-12-2010 11:00:00;8,70
11-12-2010 11:15:00;8,40
11-12-2010 11:30:00;7,80
11-12-2010 11:45:00;7,90
11-12-2010 12:00:00;7,90
11-12-2010 12:15:00;7,60
11-12-2010 12:30:00;7,50
11-12-2010 12:45:00;7,50
11-12-2010 13:00:00;7,70
11-12-2010 13:15:00;7,50
11-12-2010 13:30:00;7,40
11-12-2010 13:45:00;7,30
11-12-2010 14:00:00;7,10
11-12-2010 14:15:00;6,80
11-12-2010 14:30:00;6,80
11-12-2010 14:45:00;6,80
11-12-2010 15:00:00;6,60
11-12-2010 15:15:00;6,60
11-12-2010 15:30:00;6,50
11-12-2010 15:45:00;6,60
11-12-2010 16:00:00;6,70
11-12-2010 16:15:00;6,90
11-12-2010 16:30:00;7,00
11-12-2010 16:45:00;7,20
11-12-2010 17:00:00;7,50
11-12-2010 17:15:00;7,60
11-12-2010 17:30:00;7,80
11-12-2010 17:45:00;7,90
11-12-2010 18:00:00;8,10
11-12-2010 18:15:00;8,10
11-12-2010 18:30:00;8,10
11-12-2010 18:45:00;8,20
11-12-2010 19:00:00;8,30
11-12-2010 19:15:00;8,40
11-12-2010 19:30:00;8,40
11-12-2010 19:45:00;8,30
11-12-2010 20:00:00;8,60
11-12-2010 20:15:00;8,60
11-12-2010 20:30:00;8,60
11-12-2010 21:30:00;9,10
11-12-2010 21:45:00;8,90
11-12-2010 22:00:00;8,60
11-12-2010 22:15:00;8,50
11-12-2010 22:30:00;8,60
11-12-2010 22:45:00;8,60
11-12-2010 23:00:00;8,70
11-12-2010 23:15:00;8,70
11-12-2010 23:30:00;8,60
11-12-2010 23:45:00;8,60
12-12-2010 00:00:00;8,70
12-12-2010 00:15:00;8,00
12-12-2010 00:30:00;8,40
12-12-2010 00:45:00;8,50
12-12-2010 01:00:00;8,40
12-12-2010 01:30:00;8,50
12-12-2010 01:45:00;8,40
12-12-2010 02:00:00;8,40
12-12-2010 02:15:00;8,40
12-12-2010 02:30:00;8,40
12-12-2010 02:45:00;8,50
12-12-2010 03:00:00;8,40
12-12-2010 03:15:00;8,40
12-12-2010 03:30:00;8,40
12-12-2010 03:45:00;8,40
12-12-2010 04:00:00;8,30
12-12-2010 04:15:00;8,40
12-12-2010 04:30:00;8,40
12-12-2010 04:45:00;8,40
12-12-2010 05:00:00;8,40
12-12-2010 05:15:00;8,20
12-12-2010 05:30:00;8,30
12-12-2010 05:45:00;8,20
12-12-2010 06:00:00;8,30
12-12-2010 06:15:00;8,40
12-12-2010 06:30:00;8,40
12-12-2010 06:45:00;8,40
12-12-2010 07:00:00;8,30
12-12-2010 07:15:00;8,30
12-12-2010 07:30:00;8,30
12-12-2010 07:45:00;8,40
12-12-2010 08:00:00;8,40
12-12-2010 08:15:00;8,40
12-12-2010 08:30:00;8,40
12-12-2010 08:45:00;8,40
12-12-2010 09:00:00;8,30
12-12-2010 09:15:00;8,40
12-12-2010 09:30:00;8,40
12-12-2010 09:45:00;8,30
12-12-2010 10:45:00;8,20
12-12-2010 11:00:00;8,30
12-12-2010 11:15:00;8,30
12-12-2010 11:30:00;8,20
12-12-2010 11:45:00;8,30
12-12-2010 12:00:00;8,40
12-12-2010 12:15:00;8,10
12-12-2010 12:30:00;8,10
12-12-2010 12:45:00;8,40
12-12-2010 13:15:00;8,40
12-12-2010 13:30:00;8,60
12-12-2010 13:45:00;8,50
12-12-2010 14:00:00;8,50
12-12-2010 14:15:00;8,50
12-12-2010 14:30:00;8,40
12-12-2010 14:45:00;8,50
12-12-2010 15:00:00;8,60
12-12-2010 15:15:00;8,40
12-12-2010 15:30:00;8,30
12-12-2010 15:45:00;8,40
12-12-2010 16:00:00;8,50
12-12-2010 16:15:00;8,50
12-12-2010 16:30:00;8,40
12-12-2010 16:45:00;8,40
12-12-2010 17:00:00;8,50
12-12-2010 17:15:00;8,50
12-12-2010 17:30:00;8,40
12-12-2010 17:45:00;8,50
12-12-2010 18:00:00;8,50
12-12-2010 18:15:00;9,40
12-12-2010 18:30:00;9,30
12-12-2010 18:45:00;8,60
12-12-2010 19:00:00;8,50
12-12-2010 19:15:00;8,70
12-12-2010 19:30:00;8,70
12-12-2010 19:45:00;8,60
12-12-2010 20:00:00;8,70
12-12-2010 20:15:00;8,70
12-12-2010 20:30:00;8,80
12-12-2010 20:45:00;8,80
12-12-2010 21:00:00;8,80
12-12-2010 21:15:00;8,90
12-12-2010 21:30:00;8,90
12-12-2010 23:00:00;9,50
12-12-2010 23:15:00;9,40
12-12-2010 23:30:00;9,40
12-12-2010 23:45:00;9,10
13-12-2010 00:00:00;9,00
13-12-2010 00:45:00;8,50
13-12-2010 01:00:00;8,60
13-12-2010 01:15:00;8,60
13-12-2010 01:30:00;8,60
13-12-2010 01:45:00;8,60
13-12-2010 02:00:00;8,70
13-12-2010 02:15:00;8,70
13-12-2010 02:30:00;8,70
13-12-2010 02:45:00;8,60
13-12-2010 03:00:00;8,50
13-12-2010 03:15:00;8,60
13-12-2010 03:30:00;8,50
13-12-2010 03:45:00;8,60
13-12-2010 04:00:00;8,70
13-12-2010 04:15:00;8,70
13-12-2010 04:30:00;8,60
13-12-2010 04:45:00;8,70
13-12-2010 05:45:00;8,90
13-12-2010 06:00:00;8,80
13-12-2010 06:15:00;8,80
13-12-2010 06:30:00;8,80
13-12-2010 06:45:00;8,90
13-12-2010 07:00:00;8,80
13-12-2010 07:15:00;8,80
13-12-2010 07:30:00;8,80
13-12-2010 07:45:00;8,80
13-12-2010 08:00:00;8,80
13-12-2010 08:15:00;8,90
13-12-2010 08:30:00;8,80
13-12-2010 08:45:00;8,80
13-12-2010 09:00:00;8,70
13-12-2010 09:15:00;8,80
13-12-2010 09:30:00;8,80
13-12-2010 09:45:00;8,90
13-12-2010 10:00:00;8,80
13-12-2010 10:15:00;8,80
13-12-2010 10:30:00;8,80
13-12-2010 10:45:00;8,80
13-12-2010 11:00:00;8,90
13-12-2010 11:15:00;8,80
13-12-2010 11:30:00;8,80
13-12-2010 11:45:00;8,90
13-12-2010 12:00:00;9,00
13-12-2010 12:45:00;8,80
13-12-2010 13:00:00;8,70
13-12-2010 13:15:00;8,80
13-12-2010 13:30:00;8,80
13-12-2010 13:45:00;8,80
13-12-2010 14:00:00;8,80
13-12-2010 16:30:00;8,10
13-12-2010 16:45:00;9,10
13-12-2010 17:00:00;9,00
13-12-2010 17:15:00;8,90
13-12-2010 17:30:00;9,00
13-12-2010 17:45:00;9,00
13-12-2010 18:00:00;9,20
13-12-2010 18:15:00;9,10
13-12-2010 18:30:00;9,10
13-12-2010 18:45:00;9,20
13-12-2010 19:00:00;9,20
13-12-2010 19:30:00;9,20
13-12-2010 19:45:00;9,20
13-12-2010 20:00:00;9,30
13-12-2010 20:15:00;9,30
13-12-2010 20:30:00;9,30
13-12-2010 20:45:00;9,30
13-12-2010 21:00:00;9,60
13-12-2010 21:15:00;10,40
13-12-2010 21:30:00;10,00
13-12-2010 21:45:00;9,40
13-12-2010 22:00:00;9,30
13-12-2010 22:15:00;9,30
13-12-2010 22:30:00;9,30
13-12-2010 22:45:00;9,30
13-12-2010 23:00:00;9,40
13-12-2010 23:15:00;9,40
13-12-2010 23:30:00;9,30
13-12-2010 23:45:00;9,30
14-12-2010 00:00:00;9,40
14-12-2010 00:15:00;9,40
14-12-2010 00:30:00;9,40
14-12-2010 00:45:00;9,50
14-12-2010 01:00:00;9,50
14-12-2010 01:15:00;9,40
14-12-2010 01:30:00;9,40
14-12-2010 01:45:00;9,40
14-12-2010 02:00:00;9,50
14-12-2010 02:15:00;9,50
14-12-2010 02:30:00;9,50
14-12-2010 02:45:00;9,60
14-12-2010 03:00:00;9,50
14-12-2010 03:15:00;9,30
14-12-2010 03:30:00;9,30
14-12-2010 03:45:00;9,50
14-12-2010 04:00:00;9,50
14-12-2010 04:15:00;9,40
14-12-2010 04:30:00;9,20
14-12-2010 04:45:00;9,30
14-12-2010 05:00:00;9,30
14-12-2010 05:15:00;9,40
14-12-2010 05:30:00;9,40
14-12-2010 05:45:00;9,30
14-12-2010 06:00:00;9,20
14-12-2010 06:15:00;9,30
14-12-2010 06:45:00;9,40
14-12-2010 07:00:00;10,30
14-12-2010 07:15:00;11,90
14-12-2010 07:30:00;11,80
14-12-2010 07:45:00;11,00
14-12-2010 08:00:00;11,60
14-12-2010 08:15:00;12,10
14-12-2010 08:30:00;11,50
14-12-2010 08:45:00;11,70
14-12-2010 09:00:00;11,90
14-12-2010 09:15:00;11,90
14-12-2010 09:30:00;12,80
14-12-2010 09:45:00;12,90
14-12-2010 10:00:00;12,40
14-12-2010 10:15:00;12,00
14-12-2010 10:30:00;11,20
14-12-2010 10:45:00;11,10
14-12-2010 11:00:00;11,70
14-12-2010 11:15:00;11,40
14-12-2010 11:30:00;11,80
14-12-2010 11:45:00;11,60
14-12-2010 12:00:00;10,80
14-12-2010 12:15:00;10,40
14-12-2010 12:30:00;9,90
14-12-2010 12:45:00;10,80
14-12-2010 13:00:00;11,80
14-12-2010 13:15:00;10,80
14-12-2010 13:30:00;9,90
14-12-2010 13:45:00;9,80
14-12-2010 14:15:00;9,40
14-12-2010 14:30:00;9,30
14-12-2010 14:45:00;9,40
14-12-2010 15:00:00;9,40
14-12-2010 15:15:00;9,40
14-12-2010 15:30:00;9,60
14-12-2010 15:45:00;9,60
14-12-2010 16:00:00;9,50
14-12-2010 16:15:00;9,20
14-12-2010 16:30:00;8,90
14-12-2010 16:45:00;9,20
14-12-2010 17:00:00;9,20
14-12-2010 17:15:00;10,40
14-12-2010 17:30:00;11,50
14-12-2010 17:45:00;10,20
14-12-2010 18:00:00;10,60
14-12-2010 18:15:00;11,90
14-12-2010 18:30:00;10,90
14-12-2010 18:45:00;11,50
14-12-2010 19:00:00;10,90
14-12-2010 19:15:00;10,70
14-12-2010 19:30:00;11,20
14-12-2010 19:45:00;10,60
14-12-2010 20:00:00;10,30
14-12-2010 20:15:00;10,30
14-12-2010 20:30:00;10,40
14-12-2010 20:45:00;10,30
14-12-2010 21:00:00;10,30
14-12-2010 21:15:00;10,40
14-12-2010 21:30:00;10,60
14-12-2010 21:45:00;10,10
14-12-2010 22:00:00;10,20
14-12-2010 22:15:00;12,80
14-12-2010 22:30:00;13,50
14-12-2010 22:45:00;12,60
14-12-2010 23:00:00;12,30
14-12-2010 23:15:00;12,70
14-12-2010 23:30:00;13,00
14-12-2010 23:45:00;12,90
15-12-2010 00:00:00;12,70
15-12-2010 00:15:00;11,60
15-12-2010 00:30:00;11,30
15-12-2010 00:45:00;11,40
15-12-2010 01:00:00;11,40
15-12-2010 01:15:00;12,00
15-12-2010 01:30:00;12,10
15-12-2010 01:45:00;11,70
15-12-2010 02:00:00;11,60
15-12-2010 02:15:00;11,70
15-12-2010 02:30:00;12,00
15-12-2010 02:45:00;12,00
15-12-2010 03:00:00;11,50
15-12-2010 03:15:00;12,20
15-12-2010 03:30:00;11,90
15-12-2010 03:45:00;10,80
15-12-2010 04:00:00;10,70
15-12-2010 04:15:00;10,70
15-12-2010 04:30:00;10,40
15-12-2010 04:45:00;10,60
15-12-2010 05:00:00;9,80
15-12-2010 05:15:00;9,70
15-12-2010 05:30:00;9,80
15-12-2010 05:45:00;10,20
15-12-2010 06:00:00;12,00
15-12-2010 06:15:00;11,40
15-12-2010 06:30:00;10,70
15-12-2010 06:45:00;10,50
15-12-2010 07:00:00;9,90
15-12-2010 07:15:00;9,80
15-12-2010 07:30:00;9,90
15-12-2010 07:45:00;9,90
15-12-2010 08:00:00;9,80
15-12-2010 08:15:00;9,80
15-12-2010 08:30:00;9,90
15-12-2010 08:45:00;9,90
15-12-2010 09:00:00;9,90
15-12-2010 09:15:00;9,90
15-12-2010 09:30:00;9,90
15-12-2010 09:45:00;9,90
15-12-2010 10:00:00;9,90
15-12-2010 10:15:00;10,00
15-12-2010 10:30:00;10,00
15-12-2010 10:45:00;10,00
15-12-2010 11:00:00;10,00
15-12-2010 11:15:00;10,00
15-12-2010 11:30:00;10,00
15-12-2010 11:45:00;10,10
15-12-2010 12:00:00;11,40
15-12-2010 12:15:00;11,90
15-12-2010 12:30:00;10,10
15-12-2010 12:45:00;10,00
15-12-2010 13:00:00;9,60
15-12-2010 13:15:00;9,10
15-12-2010 13:30:00;8,80
15-12-2010 13:45:00;8,70
15-12-2010 14:00:00;8,50
15-12-2010 14:15:00;8,50
15-12-2010 14:30:00;8,40
15-12-2010 14:45:00;8,40
15-12-2010 15:00:00;8,40
15-12-2010 15:15:00;8,30
15-12-2010 15:30:00;8,40
15-12-2010 15:45:00;8,40
15-12-2010 16:00:00;8,50
15-12-2010 16:15:00;8,40
15-12-2010 16:30:00;8,30
15-12-2010 16:45:00;8,60
15-12-2010 17:00:00;8,80
15-12-2010 17:15:00;9,30
15-12-2010 17:30:00;9,70
15-12-2010 17:45:00;10,60
15-12-2010 18:00:00;10,90
15-12-2010 18:15:00;10,60
15-12-2010 18:30:00;10,80
15-12-2010 18:45:00;10,40
15-12-2010 19:00:00;10,20
15-12-2010 19:15:00;10,60
15-12-2010 19:30:00;11,00
15-12-2010 19:45:00;10,70
15-12-2010 20:00:00;10,40
15-12-2010 20:15:00;10,40
15-12-2010 20:30:00;11,00
15-12-2010 20:45:00;10,90
15-12-2010 21:00:00;10,60
15-12-2010 21:15:00;10,60
15-12-2010 21:30:00;10,70
15-12-2010 21:45:00;10,70
15-12-2010 22:00:00;10,70
15-12-2010 22:15:00;10,70
15-12-2010 22:30:00;10,70
15-12-2010 22:45:00;10,70
15-12-2010 23:00:00;10,70
15-12-2010 23:15:00;10,50
15-12-2010 23:30:00;10,60
15-12-2010 23:45:00;10,60
16-12-2010 00:00:00;10,80
16-12-2010 00:15:00;10,70
16-12-2010 00:30:00;10,60
16-12-2010 00:45:00;10,60
16-12-2010 01:00:00;10,50
16-12-2010 01:15:00;10,50
16-12-2010 01:30:00;10,60
16-12-2010 01:45:00;10,60
16-12-2010 02:00:00;10,50
16-12-2010 02:15:00;10,30
16-12-2010 02:30:00;10,30
16-12-2010 02:45:00;10,40
16-12-2010 03:00:00;10,40
16-12-2010 03:15:00;10,40
16-12-2010 03:30:00;10,40
16-12-2010 03:45:00;10,40
16-12-2010 04:00:00;10,20
16-12-2010 04:15:00;10,00
16-12-2010 04:30:00;9,90
16-12-2010 04:45:00;10,00
16-12-2010 05:00:00;10,10
16-12-2010 05:15:00;10,20
16-12-2010 05:30:00;10,30
16-12-2010 05:45:00;10,30
16-12-2010 06:00:00;10,20
16-12-2010 06:15:00;10,20
16-12-2010 06:30:00;10,20
16-12-2010 06:45:00;10,20
16-12-2010 07:00:00;10,20
16-12-2010 07:15:00;10,20
16-12-2010 07:30:00;10,20
16-12-2010 07:45:00;10,20
16-12-2010 08:00:00;10,20
16-12-2010 08:15:00;10,20
16-12-2010 08:30:00;10,30
16-12-2010 08:45:00;10,30
16-12-2010 09:00:00;10,30
16-12-2010 09:15:00;10,30
16-12-2010 09:30:00;10,20
16-12-2010 09:45:00;10,20
16-12-2010 10:00:00;10,20
16-12-2010 10:15:00;10,20
16-12-2010 10:30:00;10,30
16-12-2010 10:45:00;10,20
16-12-2010 11:00:00;10,30
16-12-2010 11:15:00;10,40
16-12-2010 11:30:00;10,30
16-12-2010 11:45:00;10,30
16-12-2010 12:00:00;10,20
16-12-2010 12:15:00;10,20
16-12-2010 12:30:00;10,00
16-12-2010 12:45:00;9,60
16-12-2010 13:00:00;9,60
16-12-2010 13:15:00;9,30
16-12-2010 13:30:00;9,10
16-12-2010 13:45:00;9,10
16-12-2010 14:00:00;8,90
16-12-2010 14:15:00;8,60
16-12-2010 14:30:00;8,60
16-12-2010 14:45:00;8,70
16-12-2010 15:00:00;8,60
16-12-2010 15:15:00;8,50
16-12-2010 15:30:00;8,60
16-12-2010 15:45:00;8,70
16-12-2010 16:00:00;8,70
16-12-2010 16:15:00;8,50
16-12-2010 16:30:00;8,30
16-12-2010 16:45:00;8,70
16-12-2010 17:00:00;9,20
16-12-2010 17:15:00;9,40
16-12-2010 17:30:00;9,60
16-12-2010 17:45:00;9,80
16-12-2010 18:00:00;9,90
16-12-2010 18:15:00;10,10
16-12-2010 18:30:00;10,00
16-12-2010 18:45:00;10,10
16-12-2010 19:00:00;10,30
16-12-2010 19:15:00;10,40
16-12-2010 19:30:00;10,40
16-12-2010 19:45:00;10,40
16-12-2010 20:00:00;10,50
16-12-2010 20:15:00;10,60
16-12-2010 20:30:00;10,50
16-12-2010 20:45:00;10,60
16-12-2010 21:00:00;10,60
16-12-2010 21:30:00;10,60
16-12-2010 21:45:00;10,60
16-12-2010 22:00:00;10,60
16-12-2010 22:15:00;10,60
16-12-2010 22:30:00;10,70
16-12-2010 22:45:00;10,70
16-12-2010 23:00:00;10,80
16-12-2010 23:15:00;10,80
16-12-2010 23:30:00;10,60
16-12-2010 23:45:00;10,60
17-12-2010 00:00:00;10,80
17-12-2010 00:15:00;10,70
17-12-2010 00:30:00;10,60
17-12-2010 00:45:00;10,70
17-12-2010 01:00:00;10,60
17-12-2010 01:15:00;10,60
17-12-2010 01:30:00;10,60
17-12-2010 01:45:00;10,60
17-12-2010 02:00:00;10,60
17-12-2010 02:15:00;10,60
17-12-2010 02:30:00;10,60
17-12-2010 02:45:00;10,60
17-12-2010 03:00:00;10,50
17-12-2010 03:15:00;10,40
17-12-2010 03:30:00;10,40
17-12-2010 03:45:00;10,30
17-12-2010 04:00:00;10,40
17-12-2010 04:15:00;10,30
17-12-2010 04:30:00;10,20
17-12-2010 04:45:00;10,20
17-12-2010 05:00:00;10,20
17-12-2010 05:15:00;10,20
17-12-2010 05:30:00;10,30
17-12-2010 05:45:00;10,30
17-12-2010 06:00:00;10,30
17-12-2010 06:15:00;10,20
17-12-2010 06:30:00;10,30
17-12-2010 06:45:00;10,30
17-12-2010 07:00:00;10,30
17-12-2010 07:15:00;10,20
17-12-2010 07:30:00;10,30
17-12-2010 07:45:00;10,20
17-12-2010 08:00:00;10,30
17-12-2010 08:15:00;10,30
17-12-2010 08:30:00;10,30
17-12-2010 08:45:00;10,30
17-12-2010 09:00:00;10,20
17-12-2010 09:15:00;10,30
17-12-2010 09:30:00;10,30
17-12-2010 09:45:00;10,30
17-12-2010 10:00:00;10,30
17-12-2010 10:15:00;10,30
17-12-2010 10:30:00;10,30
17-12-2010 10:45:00;10,30
17-12-2010 11:00:00;10,20
17-12-2010 11:15:00;10,30
17-12-2010 11:45:00;10,30
17-12-2010 12:00:00;10,20
17-12-2010 12:15:00;10,10
17-12-2010 12:30:00;9,90
17-12-2010 12:45:00;9,70
17-12-2010 13:00:00;9,60
17-12-2010 13:15:00;9,30
17-12-2010 13:30:00;9,30
17-12-2010 13:45:00;9,10
17-12-2010 14:00:00;8,80
17-12-2010 14:15:00;8,80
17-12-2010 14:30:00;8,70
17-12-2010 14:45:00;8,60
17-12-2010 15:00:00;8,60
17-12-2010 15:15:00;8,60
17-12-2010 15:30:00;8,60
17-12-2010 15:45:00;9,60
17-12-2010 16:00:00;8,90
17-12-2010 16:15:00;10,60
17-12-2010 16:30:00;10,60
17-12-2010 17:15:00;10,20
17-12-2010 17:30:00;10,00
17-12-2010 17:45:00;10,20
17-12-2010 18:00:00;10,20
17-12-2010 18:15:00;10,30
17-12-2010 18:30:00;10,40
17-12-2010 18:45:00;10,60
17-12-2010 19:00:00;10,60
17-12-2010 19:15:00;10,70
17-12-2010 19:30:00;10,70
17-12-2010 19:45:00;10,80
17-12-2010 20:00:00;11,00
17-12-2010 20:15:00;11,00
17-12-2010 20:30:00;11,10
17-12-2010 20:45:00;11,10
17-12-2010 21:00:00;11,20
17-12-2010 21:15:00;11,20
17-12-2010 21:30:00;11,30
17-12-2010 21:45:00;11,20
17-12-2010 22:00:00;11,20
17-12-2010 22:15:00;11,20
17-12-2010 22:30:00;11,20
17-12-2010 22:45:00;11,30
17-12-2010 23:00:00;11,30
17-12-2010 23:15:00;11,20
17-12-2010 23:30:00;11,30
17-12-2010 23:45:00;11,30
18-12-2010 00:00:00;11,40
18-12-2010 00:15:00;11,40
18-12-2010 00:30:00;11,40
18-12-2010 00:45:00;11,20
18-12-2010 01:00:00;11,20
18-12-2010 01:15:00;11,20
18-12-2010 01:30:00;11,20
18-12-2010 01:45:00;11,40
18-12-2010 02:00:00;11,30
18-12-2010 02:15:00;11,30
18-12-2010 02:30:00;11,30
18-12-2010 02:45:00;11,40
18-12-2010 03:00:00;11,30
18-12-2010 03:15:00;11,30
18-12-2010 03:30:00;11,20
18-12-2010 03:45:00;11,20
18-12-2010 04:00:00;11,30
18-12-2010 04:15:00;11,30
18-12-2010 04:30:00;11,10
18-12-2010 04:45:00;10,60
18-12-2010 05:00:00;10,60
18-12-2010 05:15:00;10,60
18-12-2010 05:30:00;10,70
18-12-2010 05:45:00;10,80
18-12-2010 06:00:00;10,70
18-12-2010 06:15:00;10,70
18-12-2010 06:30:00;10,60
18-12-2010 06:45:00;10,70
18-12-2010 07:00:00;10,80
18-12-2010 07:15:00;10,60
18-12-2010 07:30:00;10,60
18-12-2010 07:45:00;10,70
18-12-2010 08:00:00;10,70
18-12-2010 08:15:00;10,60
18-12-2010 08:30:00;10,60
18-12-2010 08:45:00;10,60
18-12-2010 09:00:00;10,60
18-12-2010 09:15:00;10,60
18-12-2010 09:30:00;10,60
18-12-2010 09:45:00;10,50
18-12-2010 10:00:00;10,60
18-12-2010 10:15:00;10,50
18-12-2010 10:30:00;10,30
18-12-2010 10:45:00;10,40
18-12-2010 11:15:00;10,40
18-12-2010 11:30:00;10,30
18-12-2010 11:45:00;10,20
18-12-2010 12:00:00;10,30
18-12-2010 12:15:00;10,20
18-12-2010 12:30:00;10,00
18-12-2010 12:45:00;9,70
18-12-2010 13:00:00;9,40
18-12-2010 13:15:00;9,30
18-12-2010 13:30:00;9,10
18-12-2010 13:45:00;8,80
18-12-2010 14:00:00;8,70
18-12-2010 14:15:00;8,50
18-12-2010 14:30:00;8,40
18-12-2010 14:45:00;8,40
18-12-2010 15:00:00;8,40
18-12-2010 15:15:00;8,40
18-12-2010 15:30:00;8,40
18-12-2010 15:45:00;8,50
18-12-2010 16:00:00;8,60
18-12-2010 16:15:00;8,90
18-12-2010 16:30:00;9,40
18-12-2010 16:45:00;9,20
18-12-2010 17:00:00;9,50
18-12-2010 17:15:00;9,80
18-12-2010 17:30:00;10,00
18-12-2010 17:45:00;10,20
18-12-2010 18:00:00;10,40
18-12-2010 18:15:00;10,40
18-12-2010 18:30:00;10,60
18-12-2010 18:45:00;10,70
18-12-2010 19:00:00;10,80
18-12-2010 19:15:00;10,80
18-12-2010 19:30:00;10,80
18-12-2010 19:45:00;10,70
18-12-2010 20:00:00;10,80
18-12-2010 20:15:00;10,90
18-12-2010 20:30:00;10,80
18-12-2010 20:45:00;10,90
18-12-2010 21:00:00;11,00
18-12-2010 21:15:00;10,90
18-12-2010 21:30:00;10,90
18-12-2010 21:45:00;11,10
18-12-2010 22:00:00;11,00
18-12-2010 22:15:00;11,00
18-12-2010 22:30:00;11,10
18-12-2010 22:45:00;11,20
18-12-2010 23:00:00;11,00
18-12-2010 23:15:00;11,00
18-12-2010 23:30:00;11,00
18-12-2010 23:45:00;11,00
19-12-2010 00:00:00;11,00
19-12-2010 00:15:00;11,00
19-12-2010 00:30:00;10,90
19-12-2010 00:45:00;11,00
19-12-2010 01:00:00;11,00
19-12-2010 01:15:00;11,00
19-12-2010 01:30:00;11,00
19-12-2010 01:45:00;11,10
19-12-2010 02:00:00;11,00
19-12-2010 02:15:00;10,90
19-12-2010 02:30:00;10,90
19-12-2010 02:45:00;11,00
19-12-2010 03:00:00;11,00
19-12-2010 03:15:00;11,00
19-12-2010 03:30:00;11,00
19-12-2010 03:45:00;11,10
19-12-2010 04:00:00;11,00
19-12-2010 04:15:00;11,00
19-12-2010 04:30:00;11,00
19-12-2010 04:45:00;10,90
19-12-2010 05:00:00;10,80
19-12-2010 05:15:00;10,80
19-12-2010 05:30:00;11,00
19-12-2010 05:45:00;10,90
19-12-2010 06:00:00;10,90
19-12-2010 06:15:00;10,90
19-12-2010 06:30:00;10,90
19-12-2010 06:45:00;10,90
19-12-2010 07:00:00;10,90
19-12-2010 07:15:00;10,90
19-12-2010 07:30:00;10,90
19-12-2010 07:45:00;11,00
19-12-2010 08:00:00;10,90
19-12-2010 08:15:00;10,90
19-12-2010 08:30:00;10,90
19-12-2010 08:45:00;10,90
19-12-2010 09:00:00;10,90
19-12-2010 09:15:00;10,80
19-12-2010 09:30:00;10,80
19-12-2010 09:45:00;11,00
19-12-2010 10:00:00;10,90
19-12-2010 10:15:00;10,80
19-12-2010 10:30:00;10,90
19-12-2010 10:45:00;10,90
19-12-2010 11:00:00;10,90
19-12-2010 11:15:00;10,80
19-12-2010 11:30:00;11,00
19-12-2010 11:45:00;10,90
19-12-2010 12:00:00;10,90
19-12-2010 12:15:00;10,90
19-12-2010 12:30:00;10,80
19-12-2010 12:45:00;10,70
19-12-2010 13:00:00;10,70
19-12-2010 13:15:00;10,60
19-12-2010 13:30:00;10,50
19-12-2010 13:45:00;10,40
19-12-2010 14:00:00;10,40
19-12-2010 14:15:00;10,40
19-12-2010 14:30:00;10,40
19-12-2010 14:45:00;10,40
19-12-2010 15:00:00;10,10
19-12-2010 15:15:00;10,20
19-12-2010 15:30:00;10,00
19-12-2010 15:45:00;10,00
19-12-2010 16:00:00;10,00
19-12-2010 16:15:00;10,20
19-12-2010 16:30:00;10,20
19-12-2010 16:45:00;10,20
19-12-2010 17:00:00;10,40
19-12-2010 17:15:00;10,60
19-12-2010 17:30:00;10,80
19-12-2010 17:45:00;10,80
19-12-2010 18:00:00;10,90
19-12-2010 18:15:00;10,90
19-12-2010 18:30:00;11,10
19-12-2010 18:45:00;11,20
19-12-2010 19:00:00;11,20
19-12-2010 19:15:00;11,30
19-12-2010 19:30:00;11,40
19-12-2010 19:45:00;11,40
19-12-2010 20:00:00;13,20
19-12-2010 20:15:00;12,00
19-12-2010 20:30:00;11,40
19-12-2010 20:45:00;11,40
19-12-2010 21:00:00;11,40
19-12-2010 21:15:00;11,40
19-12-2010 21:30:00;11,40
19-12-2010 21:45:00;11,40
19-12-2010 22:00:00;11,40
19-12-2010 22:15:00;11,50
19-12-2010 22:30:00;11,60
19-12-2010 22:45:00;11,40
19-12-2010 23:00:00;11,40
19-12-2010 23:15:00;11,50
19-12-2010 23:30:00;11,50
19-12-2010 23:45:00;11,40
20-12-2010 00:00:00;11,40
20-12-2010 00:15:00;11,50
20-12-2010 00:30:00;11,50
20-12-2010 00:45:00;11,50
20-12-2010 01:00:00;11,60
20-12-2010 01:15:00;11,40
20-12-2010 01:30:00;11,40
20-12-2010 01:45:00;11,40
20-12-2010 02:00:00;11,50
20-12-2010 02:15:00;11,40
20-12-2010 02:30:00;11,40
20-12-2010 02:45:00;11,40
20-12-2010 03:00:00;11,40
20-12-2010 03:15:00;11,40
20-12-2010 03:30:00;11,30
20-12-2010 03:45:00;11,30
20-12-2010 04:00:00;11,30
20-12-2010 04:15:00;11,20
20-12-2010 04:30:00;11,20
20-12-2010 04:45:00;10,90
20-12-2010 05:00:00;10,80
20-12-2010 05:15:00;11,10
20-12-2010 05:30:00;11,20
20-12-2010 05:45:00;11,00
20-12-2010 06:00:00;11,00
20-12-2010 06:15:00;11,00
20-12-2010 06:30:00;11,10
20-12-2010 06:45:00;11,00
20-12-2010 07:00:00;11,00
20-12-2010 07:15:00;10,90
20-12-2010 07:30:00;11,00
20-12-2010 07:45:00;11,00
20-12-2010 08:00:00;11,00
20-12-2010 08:15:00;11,00
20-12-2010 08:30:00;10,90
20-12-2010 08:45:00;11,10
20-12-2010 09:00:00;11,00
20-12-2010 09:15:00;11,00
20-12-2010 09:30:00;10,80
20-12-2010 09:45:00;10,80
20-12-2010 10:00:00;10,80
20-12-2010 10:15:00;10,80
20-12-2010 10:30:00;10,70
20-12-2010 10:45:00;10,80
20-12-2010 11:00:00;10,80
20-12-2010 11:15:00;10,80
20-12-2010 11:30:00;10,80
20-12-2010 11:45:00;10,70
20-12-2010 12:00:00;10,60
20-12-2010 12:15:00;10,50
20-12-2010 12:30:00;10,40
20-12-2010 12:45:00;10,10
20-12-2010 13:00:00;9,90
20-12-2010 13:15:00;9,70
20-12-2010 13:30:00;9,60
20-12-2010 13:45:00;9,50
20-12-2010 14:00:00;9,40
20-12-2010 14:15:00;9,40
20-12-2010 14:30:00;9,20
20-12-2010 14:45:00;9,30
20-12-2010 15:00:00;9,30
20-12-2010 15:15:00;9,30
20-12-2010 15:30:00;9,30
20-12-2010 15:45:00;9,40
20-12-2010 16:30:00;9,60
20-12-2010 16:45:00;9,40
20-12-2010 17:00:00;9,90
20-12-2010 17:15:00;10,00
20-12-2010 17:30:00;10,40
20-12-2010 17:45:00;10,40
20-12-2010 18:00:00;10,60
20-12-2010 18:15:00;10,80
20-12-2010 18:30:00;11,00
20-12-2010 18:45:00;11,10
20-12-2010 19:00:00;11,50
20-12-2010 19:15:00;11,40
20-12-2010 19:30:00;11,30
20-12-2010 19:45:00;11,50
20-12-2010 20:00:00;11,50
20-12-2010 20:15:00;11,50
20-12-2010 20:30:00;11,60
20-12-2010 20:45:00;11,60
20-12-2010 21:00:00;11,70
20-12-2010 21:30:00;11,60
20-12-2010 21:45:00;11,60
20-12-2010 22:00:00;11,60
20-12-2010 22:15:00;11,80
20-12-2010 22:30:00;11,70
20-12-2010 22:45:00;11,70
20-12-2010 23:00:00;11,70
20-12-2010 23:15:00;11,80
20-12-2010 23:30:00;11,90
20-12-2010 23:45:00;11,80
21-12-2010 00:00:00;11,80
21-12-2010 00:15:00;11,80
21-12-2010 00:30:00;11,80
21-12-2010 00:45:00;11,80
21-12-2010 01:00:00;11,70
21-12-2010 01:15:00;11,60
21-12-2010 01:30:00;11,60
21-12-2010 01:45:00;11,60
21-12-2010 02:00:00;11,60
21-12-2010 02:15:00;11,60
21-12-2010 02:30:00;11,60
21-12-2010 02:45:00;11,60
21-12-2010 03:00:00;11,60
21-12-2010 03:15:00;11,50
21-12-2010 03:30:00;11,50
21-12-2010 03:45:00;11,60
21-12-2010 04:00:00;11,60
21-12-2010 04:15:00;11,60
21-12-2010 04:30:00;11,50
21-12-2010 04:45:00;11,20
21-12-2010 05:00:00;11,60
21-12-2010 05:15:00;11,40
21-12-2010 05:30:00;11,20
21-12-2010 05:45:00;11,20
21-12-2010 06:00:00;11,20
21-12-2010 06:15:00;11,20
21-12-2010 06:30:00;11,20
21-12-2010 06:45:00;11,10
21-12-2010 07:00:00;11,20
21-12-2010 07:15:00;11,00
21-12-2010 07:30:00;11,20
21-12-2010 07:45:00;11,20
21-12-2010 08:00:00;11,20
21-12-2010 08:15:00;11,20
21-12-2010 08:30:00;11,10
21-12-2010 08:45:00;11,00
21-12-2010 09:00:00;11,00
21-12-2010 09:15:00;11,00
21-12-2010 09:30:00;11,10
21-12-2010 09:45:00;10,90
21-12-2010 10:00:00;11,20
21-12-2010 10:15:00;10,90
21-12-2010 10:30:00;11,00
21-12-2010 10:45:00;10,90
21-12-2010 11:00:00;10,90
21-12-2010 11:15:00;11,20
21-12-2010 11:30:00;11,10
21-12-2010 13:45:00;12,40
21-12-2010 14:00:00;11,60
21-12-2010 14:15:00;11,70
21-12-2010 14:30:00;11,70
21-12-2010 14:45:00;11,80
21-12-2010 15:00:00;11,90
21-12-2010 15:15:00;11,80
21-12-2010 15:30:00;11,80
21-12-2010 15:45:00;12,00
21-12-2010 16:00:00;11,90
21-12-2010 16:15:00;12,00
21-12-2010 16:30:00;11,90
21-12-2010 16:45:00;11,50
21-12-2010 17:00:00;11,50
21-12-2010 17:15:00;11,80
21-12-2010 17:30:00;11,70
21-12-2010 17:45:00;11,70
21-12-2010 18:00:00;11,80
21-12-2010 18:15:00;11,80
21-12-2010 18:30:00;11,90
21-12-2010 18:45:00;11,80
21-12-2010 19:00:00;12,00
21-12-2010 19:15:00;12,00
21-12-2010 19:30:00;12,00
21-12-2010 19:45:00;12,20
21-12-2010 20:00:00;12,00
21-12-2010 20:15:00;12,10
21-12-2010 20:30:00;12,10
21-12-2010 20:45:00;12,10
21-12-2010 21:00:00;12,20
21-12-2010 21:15:00;12,20
21-12-2010 21:30:00;12,10
21-12-2010 21:45:00;12,20
21-12-2010 22:00:00;12,20
21-12-2010 22:15:00;12,30
21-12-2010 22:30:00;12,30
21-12-2010 22:45:00;12,20
21-12-2010 23:00:00;12,30
21-12-2010 23:15:00;12,40
21-12-2010 23:30:00;12,30
21-12-2010 23:45:00;12,40
22-12-2010 00:00:00;12,50
22-12-2010 00:15:00;12,50
22-12-2010 00:30:00;12,40
22-12-2010 00:45:00;12,40
22-12-2010 01:00:00;12,40
22-12-2010 01:15:00;12,60
22-12-2010 01:30:00;12,50
22-12-2010 01:45:00;12,50
22-12-2010 02:00:00;12,40
22-12-2010 02:15:00;12,50
22-12-2010 02:30:00;12,50
22-12-2010 02:45:00;12,40
22-12-2010 03:00:00;12,60
22-12-2010 03:15:00;12,50
22-12-2010 03:30:00;12,50
22-12-2010 03:45:00;12,50
22-12-2010 04:00:00;12,50
22-12-2010 04:15:00;12,40
22-12-2010 04:30:00;12,50
22-12-2010 04:45:00;12,20
22-12-2010 05:00:00;12,30
22-12-2010 05:15:00;12,40
22-12-2010 05:30:00;12,50
22-12-2010 05:45:00;12,60
22-12-2010 06:00:00;12,60
22-12-2010 06:15:00;12,50
22-12-2010 06:30:00;12,60
22-12-2010 06:45:00;12,50
22-12-2010 07:00:00;12,50
22-12-2010 07:15:00;12,60
22-12-2010 07:30:00;12,60
22-12-2010 07:45:00;12,50
22-12-2010 08:00:00;12,60
22-12-2010 08:15:00;12,70
22-12-2010 08:30:00;12,60
22-12-2010 08:45:00;12,80
22-12-2010 09:00:00;12,60
22-12-2010 09:15:00;12,60
22-12-2010 09:30:00;12,60
22-12-2010 09:45:00;12,80
22-12-2010 10:00:00;12,80
22-12-2010 10:15:00;12,70
22-12-2010 10:30:00;12,70
22-12-2010 10:45:00;12,90
22-12-2010 11:00:00;12,70
22-12-2010 11:15:00;12,70
22-12-2010 11:30:00;12,80
22-12-2010 11:45:00;12,80
22-12-2010 12:00:00;12,70
22-12-2010 12:15:00;12,70
22-12-2010 12:30:00;12,70
22-12-2010 12:45:00;12,80
22-12-2010 13:00:00;12,80
22-12-2010 13:15:00;12,80
22-12-2010 13:30:00;13,10
22-12-2010 13:45:00;12,90
22-12-2010 14:00:00;12,90
22-12-2010 14:30:00;13,10
22-12-2010 14:45:00;13,00
22-12-2010 15:00:00;13,00
22-12-2010 15:15:00;13,00
22-12-2010 15:30:00;13,00
22-12-2010 15:45:00;13,00
22-12-2010 16:00:00;13,20
22-12-2010 16:15:00;13,30
22-12-2010 16:30:00;13,30
22-12-2010 17:00:00;13,40
22-12-2010 17:15:00;13,50
22-12-2010 17:30:00;13,50
22-12-2010 17:45:00;13,50
22-12-2010 18:00:00;13,50
22-12-2010 18:15:00;13,50
22-12-2010 18:30:00;13,50
22-12-2010 18:45:00;13,50
22-12-2010 19:00:00;13,50
22-12-2010 19:15:00;13,60
22-12-2010 19:30:00;13,60
22-12-2010 19:45:00;13,70
22-12-2010 20:00:00;13,70
22-12-2010 20:15:00;13,70
22-12-2010 20:30:00;13,70
22-12-2010 20:45:00;13,60
22-12-2010 21:00:00;13,80
22-12-2010 21:15:00;13,70
22-12-2010 21:30:00;13,70
22-12-2010 21:45:00;13,70
22-12-2010 22:00:00;14,90
22-12-2010 22:15:00;15,90
22-12-2010 22:30:00;16,10
22-12-2010 22:45:00;15,60
22-12-2010 23:00:00;15,00
22-12-2010 23:15:00;14,30
22-12-2010 23:30:00;13,80
22-12-2010 23:45:00;14,20
23-12-2010 00:00:00;13,90
23-12-2010 00:15:00;13,90
23-12-2010 00:30:00;13,90
23-12-2010 00:45:00;13,90
23-12-2010 01:00:00;14,00
23-12-2010 01:15:00;14,00
23-12-2010 01:30:00;14,00
23-12-2010 01:45:00;14,00
23-12-2010 02:00:00;14,00
23-12-2010 02:15:00;14,00
23-12-2010 02:30:00;14,10
23-12-2010 02:45:00;14,10
23-12-2010 03:00:00;14,00
23-12-2010 03:15:00;14,00
23-12-2010 03:30:00;14,10
23-12-2010 03:45:00;14,00
23-12-2010 04:00:00;14,20
23-12-2010 04:15:00;14,20
23-12-2010 04:30:00;14,10
23-12-2010 04:45:00;13,70
23-12-2010 05:00:00;13,70
23-12-2010 05:15:00;13,90
23-12-2010 05:30:00;13,90
23-12-2010 05:45:00;13,90
23-12-2010 06:00:00;13,90
23-12-2010 06:15:00;13,90
23-12-2010 06:30:00;13,80
23-12-2010 06:45:00;13,90
23-12-2010 07:00:00;13,80
23-12-2010 07:15:00;13,80
23-12-2010 07:30:00;13,90
23-12-2010 07:45:00;13,80
23-12-2010 08:00:00;13,80
23-12-2010 08:15:00;13,80
23-12-2010 08:30:00;13,90
23-12-2010 08:45:00;13,80
23-12-2010 09:00:00;13,80
23-12-2010 09:15:00;13,90
23-12-2010 09:30:00;14,00
23-12-2010 09:45:00;13,90
23-12-2010 10:00:00;13,90
23-12-2010 10:15:00;14,00
23-12-2010 10:30:00;14,00
23-12-2010 10:45:00;14,00
23-12-2010 11:00:00;14,10
23-12-2010 11:15:00;14,20
23-12-2010 11:30:00;14,20
23-12-2010 11:45:00;14,20
23-12-2010 12:00:00;14,30
23-12-2010 12:15:00;14,40
23-12-2010 12:30:00;14,40
23-12-2010 12:45:00;14,40
23-12-2010 13:00:00;14,60
23-12-2010 13:15:00;14,70
23-12-2010 13:30:00;14,80
23-12-2010 13:45:00;14,70
23-12-2010 14:00:00;14,70
23-12-2010 14:15:00;14,70
23-12-2010 14:30:00;14,70
23-12-2010 14:45:00;14,70
23-12-2010 15:00:00;14,80
23-12-2010 15:15:00;14,80
23-12-2010 15:30:00;14,80
23-12-2010 15:45:00;14,70
23-12-2010 16:00:00;14,70
23-12-2010 16:15:00;14,70
23-12-2010 16:30:00;14,60
23-12-2010 16:45:00;14,20
23-12-2010 17:00:00;14,30
23-12-2010 17:15:00;14,40
23-12-2010 17:30:00;14,40
23-12-2010 17:45:00;14,40
23-12-2010 18:00:00;14,50
23-12-2010 18:15:00;14,60
23-12-2010 18:30:00;14,60
23-12-2010 18:45:00;14,60
23-12-2010 19:00:00;14,50
23-12-2010 19:15:00;14,60
23-12-2010 19:30:00;14,70
23-12-2010 19:45:00;14,60
23-12-2010 20:00:00;14,60
23-12-2010 20:15:00;14,60
23-12-2010 20:30:00;14,50
23-12-2010 20:45:00;14,60
23-12-2010 21:00:00;14,50
23-12-2010 21:15:00;14,50
23-12-2010 21:30:00;14,60
23-12-2010 21:45:00;14,70
23-12-2010 22:00:00;14,60
23-12-2010 22:15:00;14,60
23-12-2010 22:30:00;14,60
23-12-2010 22:45:00;14,60
23-12-2010 23:00:00;14,70
23-12-2010 23:15:00;14,70
23-12-2010 23:30:00;14,70
23-12-2010 23:45:00;14,60
24-12-2010 00:00:00;14,70
24-12-2010 00:15:00;14,70
24-12-2010 00:30:00;14,60
24-12-2010 00:45:00;14,70
24-12-2010 01:00:00;14,60
24-12-2010 01:15:00;14,60
24-12-2010 01:30:00;14,60
24-12-2010 01:45:00;14,60
24-12-2010 02:00:00;14,50
24-12-2010 02:15:00;14,70
24-12-2010 02:30:00;14,50
24-12-2010 02:45:00;14,40
24-12-2010 03:00:00;14,50
24-12-2010 03:15:00;14,50
24-12-2010 03:30:00;14,60
24-12-2010 03:45:00;14,50
24-12-2010 04:00:00;14,50
24-12-2010 04:15:00;14,50
24-12-2010 04:30:00;14,40
24-12-2010 04:45:00;14,10
24-12-2010 05:00:00;14,20
24-12-2010 05:15:00;14,20
24-12-2010 05:30:00;14,40
24-12-2010 05:45:00;14,20
24-12-2010 06:00:00;14,30
24-12-2010 06:15:00;14,40
24-12-2010 06:30:00;14,30
24-12-2010 06:45:00;14,30
24-12-2010 07:00:00;14,30
24-12-2010 07:15:00;14,40
24-12-2010 07:30:00;14,30
24-12-2010 07:45:00;14,30
24-12-2010 08:00:00;14,40
24-12-2010 08:15:00;14,30
24-12-2010 08:30:00;14,30
24-12-2010 08:45:00;14,30
24-12-2010 09:00:00;14,40
24-12-2010 09:15:00;14,30
24-12-2010 09:30:00;14,40
24-12-2010 09:45:00;14,40
24-12-2010 10:00:00;14,40
24-12-2010 10:15:00;14,40
24-12-2010 10:30:00;14,50
24-12-2010 10:45:00;14,40
24-12-2010 11:00:00;14,50
24-12-2010 11:15:00;14,60
24-12-2010 11:30:00;14,50
24-12-2010 11:45:00;14,50
24-12-2010 12:00:00;14,50
24-12-2010 12:15:00;14,40
24-12-2010 12:30:00;14,30
24-12-2010 12:45:00;14,20
24-12-2010 13:00:00;14,00
24-12-2010 13:15:00;14,10
24-12-2010 13:30:00;13,90
24-12-2010 13:45:00;13,90
24-12-2010 14:00:00;13,80
24-12-2010 14:15:00;13,80
24-12-2010 14:30:00;13,70
24-12-2010 14:45:00;13,70
24-12-2010 15:00:00;13,60
24-12-2010 15:15:00;13,60
24-12-2010 15:30:00;13,60
24-12-2010 15:45:00;13,60
24-12-2010 16:00:00;13,60
24-12-2010 16:15:00;13,80
24-12-2010 16:30:00;13,80
24-12-2010 16:45:00;13,60
24-12-2010 17:00:00;13,80
24-12-2010 17:15:00;14,30
24-12-2010 17:30:00;14,60
24-12-2010 17:45:00;14,70
24-12-2010 18:00:00;15,10
24-12-2010 18:15:00;15,20
24-12-2010 18:30:00;15,30
24-12-2010 18:45:00;15,50
24-12-2010 19:00:00;15,60
24-12-2010 19:15:00;15,70
24-12-2010 19:30:00;15,70
24-12-2010 19:45:00;15,70
24-12-2010 20:00:00;15,70
24-12-2010 20:15:00;15,70
24-12-2010 20:30:00;15,70
24-12-2010 20:45:00;15,60
24-12-2010 21:00:00;15,70
24-12-2010 21:15:00;15,70
24-12-2010 21:30:00;15,60
24-12-2010 21:45:00;15,60
24-12-2010 22:00:00;15,50
24-12-2010 22:15:00;15,50
24-12-2010 22:30:00;15,50
24-12-2010 22:45:00;15,50
24-12-2010 23:00:00;15,50
24-12-2010 23:15:00;15,60
24-12-2010 23:30:00;15,50
24-12-2010 23:45:00;15,50
25-12-2010 00:00:00;15,60
25-12-2010 00:15:00;15,60
25-12-2010 00:30:00;15,60
25-12-2010 00:45:00;15,40
25-12-2010 01:00:00;15,60
25-12-2010 01:15:00;15,60
25-12-2010 01:30:00;15,50
25-12-2010 01:45:00;15,60
25-12-2010 02:00:00;15,60
25-12-2010 02:15:00;15,60
25-12-2010 02:30:00;15,70
25-12-2010 02:45:00;15,60
25-12-2010 03:00:00;15,70
25-12-2010 03:15:00;15,70
25-12-2010 03:30:00;15,70
25-12-2010 03:45:00;15,70
25-12-2010 04:00:00;15,80
25-12-2010 04:15:00;15,90
25-12-2010 04:30:00;15,80
25-12-2010 04:45:00;15,50
25-12-2010 05:00:00;15,60
25-12-2010 05:15:00;15,60
25-12-2010 05:30:00;15,70
25-12-2010 05:45:00;15,60
25-12-2010 06:00:00;15,70
25-12-2010 06:15:00;15,60
25-12-2010 06:30:00;15,60
25-12-2010 06:45:00;15,50
25-12-2010 07:00:00;15,60
25-12-2010 07:15:00;15,50
25-12-2010 07:30:00;15,60
25-12-2010 07:45:00;15,50
25-12-2010 08:00:00;15,40
25-12-2010 08:15:00;15,40
25-12-2010 08:30:00;15,40
25-12-2010 08:45:00;15,40
25-12-2010 09:00:00;15,50
25-12-2010 09:15:00;15,50
25-12-2010 09:30:00;15,40
25-12-2010 09:45:00;15,40
25-12-2010 10:00:00;15,40
25-12-2010 10:15:00;15,60
25-12-2010 10:30:00;15,50
25-12-2010 10:45:00;15,40
25-12-2010 11:15:00;15,40
25-12-2010 11:30:00;15,30
25-12-2010 11:45:00;15,30
25-12-2010 12:00:00;15,30
25-12-2010 12:15:00;15,20
25-12-2010 12:30:00;14,90
25-12-2010 12:45:00;14,80
25-12-2010 13:00:00;14,50
25-12-2010 13:15:00;14,40
25-12-2010 13:30:00;14,20
25-12-2010 13:45:00;14,20
25-12-2010 14:00:00;14,20
25-12-2010 14:15:00;14,10
25-12-2010 14:30:00;14,10
25-12-2010 14:45:00;13,90
25-12-2010 15:00:00;13,90
25-12-2010 15:15:00;14,00
25-12-2010 15:30:00;14,00
25-12-2010 15:45:00;14,00
25-12-2010 16:00:00;14,00
25-12-2010 16:15:00;14,20
25-12-2010 16:30:00;14,30
25-12-2010 16:45:00;14,10
25-12-2010 17:00:00;14,40
25-12-2010 17:15:00;14,60
25-12-2010 17:30:00;14,90
25-12-2010 17:45:00;15,10
25-12-2010 18:00:00;15,40
25-12-2010 18:15:00;15,60
25-12-2010 18:30:00;15,70
25-12-2010 18:45:00;15,70
25-12-2010 19:00:00;15,80
25-12-2010 19:15:00;15,70
25-12-2010 19:30:00;15,80
25-12-2010 19:45:00;15,90
25-12-2010 20:00:00;15,90
25-12-2010 20:15:00;15,80
25-12-2010 20:30:00;15,90
25-12-2010 20:45:00;15,90
25-12-2010 21:00:00;16,00
25-12-2010 21:15:00;15,80
25-12-2010 21:30:00;15,90
25-12-2010 21:45:00;16,00
25-12-2010 22:00:00;15,90
25-12-2010 22:15:00;15,90
25-12-2010 22:30:00;15,90
25-12-2010 22:45:00;16,10
25-12-2010 23:00:00;16,00
25-12-2010 23:15:00;15,90
25-12-2010 23:30:00;16,00
25-12-2010 23:45:00;15,90
26-12-2010 00:00:00;15,80
26-12-2010 00:15:00;15,90
26-12-2010 00:30:00;16,00
26-12-2010 00:45:00;15,90
26-12-2010 01:00:00;15,80
26-12-2010 01:15:00;15,80
26-12-2010 01:30:00;15,70
26-12-2010 01:45:00;15,80
26-12-2010 02:00:00;15,80
26-12-2010 02:15:00;15,80
26-12-2010 02:30:00;15,80
26-12-2010 02:45:00;15,80
26-12-2010 03:00:00;15,80
26-12-2010 03:15:00;15,70
26-12-2010 03:30:00;15,70
26-12-2010 03:45:00;15,70
26-12-2010 04:00:00;15,80
26-12-2010 04:15:00;15,70
26-12-2010 04:30:00;15,60
26-12-2010 04:45:00;15,30
26-12-2010 05:00:00;15,30
26-12-2010 05:15:00;15,50
26-12-2010 05:30:00;15,30
26-12-2010 05:45:00;15,40
26-12-2010 06:00:00;15,40
26-12-2010 06:15:00;15,40
26-12-2010 06:30:00;15,30
26-12-2010 06:45:00;15,20
26-12-2010 07:00:00;15,20
26-12-2010 07:15:00;15,20
26-12-2010 07:30:00;15,10
26-12-2010 07:45:00;15,20
26-12-2010 08:00:00;15,20
26-12-2010 08:15:00;15,20
26-12-2010 08:30:00;15,30
26-12-2010 08:45:00;15,20
26-12-2010 09:00:00;15,30
26-12-2010 09:15:00;15,20
26-12-2010 09:30:00;15,20
26-12-2010 09:45:00;15,20
26-12-2010 10:00:00;15,30
26-12-2010 10:15:00;15,40
26-12-2010 10:30:00;15,30
26-12-2010 10:45:00;15,10
26-12-2010 11:00:00;15,20
26-12-2010 11:15:00;15,10
26-12-2010 11:30:00;15,10
26-12-2010 11:45:00;15,10
26-12-2010 12:00:00;15,00
26-12-2010 12:15:00;14,80
26-12-2010 12:30:00;14,60
26-12-2010 12:45:00;14,50
26-12-2010 13:00:00;14,10
26-12-2010 13:15:00;14,10
26-12-2010 13:30:00;13,90
26-12-2010 13:45:00;13,80
26-12-2010 14:00:00;13,60
26-12-2010 14:15:00;13,70
26-12-2010 14:30:00;13,70
26-12-2010 14:45:00;13,60
26-12-2010 15:00:00;13,80
26-12-2010 15:15:00;13,60
26-12-2010 15:30:00;13,50
26-12-2010 15:45:00;13,70
26-12-2010 16:00:00;13,80
26-12-2010 16:15:00;13,70
26-12-2010 16:30:00;13,70
26-12-2010 16:45:00;13,40
26-12-2010 17:00:00;13,90
26-12-2010 17:15:00;14,20
26-12-2010 17:30:00;14,60
26-12-2010 17:45:00;14,90
26-12-2010 18:00:00;15,00
26-12-2010 18:15:00;15,30
26-12-2010 18:30:00;15,30
26-12-2010 18:45:00;15,30
26-12-2010 19:00:00;15,40
26-12-2010 19:15:00;15,50
26-12-2010 19:30:00;15,50
26-12-2010 19:45:00;15,70
26-12-2010 20:00:00;15,70
26-12-2010 20:15:00;15,80
26-12-2010 20:30:00;15,80
26-12-2010 20:45:00;15,80
26-12-2010 21:00:00;15,70
26-12-2010 21:15:00;15,80
26-12-2010 21:30:00;15,80
26-12-2010 21:45:00;15,80
26-12-2010 22:00:00;15,90
26-12-2010 22:15:00;15,90
26-12-2010 22:30:00;15,80
26-12-2010 22:45:00;15,70
26-12-2010 23:00:00;15,80
26-12-2010 23:15:00;15,90
26-12-2010 23:30:00;15,80
26-12-2010 23:45:00;15,70
27-12-2010 00:00:00;15,80
27-12-2010 00:15:00;15,70
27-12-2010 00:30:00;15,60
27-12-2010 00:45:00;15,60
27-12-2010 01:00:00;15,70
27-12-2010 01:15:00;15,70
27-12-2010 01:30:00;15,60
27-12-2010 01:45:00;15,60
27-12-2010 02:00:00;15,50
27-12-2010 02:15:00;15,50
27-12-2010 02:30:00;15,50
27-12-2010 02:45:00;15,50
27-12-2010 03:00:00;15,40
27-12-2010 03:15:00;15,40
27-12-2010 03:45:00;15,40
27-12-2010 04:00:00;15,40
27-12-2010 04:15:00;15,30
27-12-2010 04:30:00;15,20
27-12-2010 04:45:00;15,10
27-12-2010 05:00:00;15,10
27-12-2010 05:15:00;15,10
27-12-2010 05:30:00;15,10
27-12-2010 05:45:00;15,20
27-12-2010 06:00:00;15,30
27-12-2010 06:15:00;15,20
27-12-2010 06:30:00;15,20
27-12-2010 06:45:00;15,20
27-12-2010 07:00:00;15,20
27-12-2010 07:15:00;15,10
27-12-2010 07:30:00;15,10
27-12-2010 07:45:00;15,10
27-12-2010 08:00:00;15,20
27-12-2010 08:15:00;15,20
27-12-2010 08:30:00;15,10
27-12-2010 08:45:00;15,20
27-12-2010 09:00:00;15,20
27-12-2010 09:15:00;15,10
27-12-2010 09:30:00;15,20
27-12-2010 09:45:00;15,30
27-12-2010 10:00:00;15,10
27-12-2010 10:30:00;15,20
27-12-2010 10:45:00;15,20
27-12-2010 11:00:00;15,20
27-12-2010 11:15:00;15,40
27-12-2010 11:30:00;15,40
27-12-2010 11:45:00;15,20
27-12-2010 12:00:00;15,20
27-12-2010 12:15:00;15,20
27-12-2010 12:30:00;14,70
27-12-2010 12:45:00;14,40
27-12-2010 13:00:00;14,20
27-12-2010 13:15:00;14,10
27-12-2010 13:30:00;14,00
27-12-2010 13:45:00;13,80
27-12-2010 14:00:00;13,70
27-12-2010 14:15:00;13,50
27-12-2010 14:30:00;13,50
27-12-2010 14:45:00;13,60
27-12-2010 15:00:00;13,40
27-12-2010 15:15:00;13,40
27-12-2010 15:30:00;13,40
27-12-2010 15:45:00;13,40
27-12-2010 16:00:00;13,30
27-12-2010 16:15:00;13,30
27-12-2010 16:30:00;13,40
27-12-2010 16:45:00;13,30
27-12-2010 17:00:00;13,60
27-12-2010 17:15:00;14,00
27-12-2010 17:30:00;14,30
27-12-2010 17:45:00;14,60
27-12-2010 18:00:00;15,10
27-12-2010 18:15:00;15,20
27-12-2010 18:30:00;15,20
27-12-2010 18:45:00;15,30
27-12-2010 19:00:00;15,30
27-12-2010 19:15:00;15,40
27-12-2010 19:30:00;15,50
27-12-2010 20:15:00;15,60
27-12-2010 20:30:00;15,80
27-12-2010 20:45:00;15,90
27-12-2010 21:00:00;15,80
27-12-2010 21:15:00;16,00
27-12-2010 21:30:00;16,00
27-12-2010 21:45:00;16,00
27-12-2010 22:00:00;16,00
27-12-2010 22:15:00;16,10
27-12-2010 22:30:00;16,10
27-12-2010 22:45:00;16,00
27-12-2010 23:00:00;15,90
27-12-2010 23:15:00;16,00
27-12-2010 23:30:00;16,00
27-12-2010 23:45:00;15,90
28-12-2010 00:00:00;15,90
28-12-2010 00:15:00;15,90
28-12-2010 00:30:00;15,90
28-12-2010 00:45:00;15,90
28-12-2010 01:00:00;15,90
28-12-2010 01:15:00;15,60
28-12-2010 01:30:00;15,70
28-12-2010 01:45:00;15,70
28-12-2010 02:00:00;15,70
28-12-2010 02:15:00;15,80
28-12-2010 02:30:00;15,60
28-12-2010 02:45:00;15,60
28-12-2010 03:00:00;15,50
28-12-2010 03:15:00;15,60
28-12-2010 03:30:00;15,60
28-12-2010 03:45:00;15,50
28-12-2010 04:00:00;15,50
28-12-2010 04:15:00;15,60
28-12-2010 04:30:00;15,50
28-12-2010 04:45:00;15,20
28-12-2010 05:00:00;15,20
28-12-2010 05:15:00;15,30
28-12-2010 05:30:00;15,30
28-12-2010 05:45:00;15,40
28-12-2010 06:00:00;15,50
28-12-2010 06:15:00;15,50
28-12-2010 06:30:00;15,60
28-12-2010 06:45:00;15,60
28-12-2010 07:00:00;15,40
28-12-2010 07:15:00;15,40
28-12-2010 07:30:00;15,40
28-12-2010 07:45:00;15,40
28-12-2010 08:00:00;15,40
28-12-2010 08:15:00;15,40
28-12-2010 08:30:00;15,50
28-12-2010 08:45:00;15,40
28-12-2010 09:00:00;15,40
28-12-2010 09:15:00;15,40
28-12-2010 09:30:00;15,40
28-12-2010 09:45:00;15,50
28-12-2010 10:00:00;15,40
28-12-2010 10:15:00;15,40
28-12-2010 10:30:00;15,40
28-12-2010 10:45:00;15,30
28-12-2010 11:00:00;15,30
28-12-2010 11:15:00;15,30
28-12-2010 11:30:00;15,20
28-12-2010 11:45:00;15,10
28-12-2010 12:00:00;15,10
28-12-2010 12:15:00;14,90
28-12-2010 12:30:00;14,80
28-12-2010 12:45:00;14,60
28-12-2010 15:15:00;8,00
28-12-2010 15:30:00;7,80
28-12-2010 15:45:00;7,80
28-12-2010 16:00:00;7,90
28-12-2010 16:15:00;7,90
28-12-2010 16:30:00;8,10
28-12-2010 16:45:00;8,30
28-12-2010 17:00:00;8,60
28-12-2010 17:15:00;8,70
28-12-2010 17:30:00;8,90
28-12-2010 17:45:00;9,00
28-12-2010 18:00:00;9,30
28-12-2010 18:15:00;9,40
28-12-2010 18:30:00;9,40
28-12-2010 18:45:00;9,50
28-12-2010 19:00:00;9,50
28-12-2010 19:15:00;9,60
28-12-2010 19:30:00;9,60
28-12-2010 19:45:00;9,70
28-12-2010 20:00:00;9,60
28-12-2010 20:15:00;9,80
28-12-2010 20:30:00;9,80
28-12-2010 20:45:00;9,80
28-12-2010 21:00:00;9,80
28-12-2010 21:15:00;9,80
28-12-2010 21:30:00;9,80
28-12-2010 21:45:00;9,80
28-12-2010 22:00:00;9,80
28-12-2010 22:15:00;9,80
28-12-2010 22:30:00;9,80
28-12-2010 22:45:00;9,80
28-12-2010 23:00:00;9,80
28-12-2010 23:15:00;9,90
28-12-2010 23:30:00;9,70
28-12-2010 23:45:00;9,70
29-12-2010 00:00:00;9,60
29-12-2010 00:15:00;9,70
29-12-2010 00:30:00;9,60
29-12-2010 00:45:00;9,70
29-12-2010 01:00:00;9,50
29-12-2010 01:15:00;9,70
29-12-2010 01:30:00;9,40
29-12-2010 01:45:00;9,30
29-12-2010 02:00:00;9,40
29-12-2010 02:15:00;9,40
29-12-2010 02:30:00;9,30
29-12-2010 02:45:00;9,40
29-12-2010 03:00:00;9,40
29-12-2010 03:15:00;9,50
29-12-2010 03:30:00;9,50
29-12-2010 03:45:00;9,40
29-12-2010 04:00:00;9,60
29-12-2010 04:15:00;9,50
29-12-2010 04:30:00;9,40
29-12-2010 04:45:00;9,40
29-12-2010 05:00:00;9,50
29-12-2010 05:15:00;9,40
29-12-2010 05:30:00;9,40
29-12-2010 05:45:00;9,40
29-12-2010 06:00:00;9,40
29-12-2010 06:15:00;9,40
29-12-2010 06:30:00;9,50
29-12-2010 06:45:00;9,40
29-12-2010 07:00:00;9,40
29-12-2010 07:15:00;9,50
29-12-2010 07:30:00;9,40
29-12-2010 07:45:00;9,50
29-12-2010 08:00:00;9,40
29-12-2010 08:15:00;9,50
29-12-2010 08:30:00;9,40
29-12-2010 08:45:00;9,40
29-12-2010 09:00:00;9,40
29-12-2010 09:15:00;9,40
29-12-2010 09:30:00;9,40
29-12-2010 09:45:00;9,40
29-12-2010 10:00:00;9,50
29-12-2010 10:15:00;9,40
29-12-2010 10:30:00;9,50
29-12-2010 10:45:00;9,50
29-12-2010 11:00:00;9,40
29-12-2010 11:15:00;9,30
29-12-2010 11:30:00;9,40
29-12-2010 11:45:00;9,40
29-12-2010 12:00:00;9,40
29-12-2010 12:15:00;9,20
29-12-2010 12:30:00;9,20
29-12-2010 12:45:00;9,00
29-12-2010 13:00:00;8,80
29-12-2010 13:15:00;8,60
29-12-2010 13:30:00;8,30
29-12-2010 13:45:00;8,00
29-12-2010 14:00:00;7,80
29-12-2010 14:15:00;7,70
29-12-2010 14:30:00;7,70
29-12-2010 14:45:00;7,60
29-12-2010 15:00:00;7,70
29-12-2010 15:15:00;7,60
29-12-2010 15:30:00;7,60
29-12-2010 15:45:00;7,70
29-12-2010 16:00:00;7,80
29-12-2010 16:15:00;7,60
29-12-2010 16:30:00;7,50
29-12-2010 16:45:00;7,80
29-12-2010 17:00:00;8,00
29-12-2010 17:15:00;8,20
29-12-2010 17:30:00;8,30
29-12-2010 17:45:00;8,40
29-12-2010 18:00:00;8,30
29-12-2010 18:15:00;8,40
29-12-2010 18:45:00;8,60
29-12-2010 19:00:00;8,80
29-12-2010 19:15:00;8,80
29-12-2010 19:30:00;8,80
29-12-2010 19:45:00;8,90
29-12-2010 20:00:00;9,00
29-12-2010 20:15:00;9,10
29-12-2010 20:30:00;9,20
29-12-2010 20:45:00;9,40
29-12-2010 21:00:00;9,30
29-12-2010 21:15:00;9,50
29-12-2010 21:30:00;9,80
29-12-2010 21:45:00;9,70
29-12-2010 22:00:00;9,60
29-12-2010 22:15:00;9,80
29-12-2010 22:30:00;10,00
29-12-2010 22:45:00;9,80
29-12-2010 23:00:00;9,80
29-12-2010 23:15:00;9,90
29-12-2010 23:30:00;9,90
29-12-2010 23:45:00;10,00
30-12-2010 00:00:00;10,00
30-12-2010 00:15:00;9,70
30-12-2010 00:30:00;9,70
30-12-2010 00:45:00;9,80
30-12-2010 01:00:00;9,60
30-12-2010 01:15:00;9,70
30-12-2010 01:30:00;9,60
30-12-2010 01:45:00;9,60
30-12-2010 02:00:00;9,50
30-12-2010 02:15:00;9,70
30-12-2010 02:30:00;9,70
30-12-2010 02:45:00;9,60
30-12-2010 03:00:00;9,70
30-12-2010 03:15:00;9,60
30-12-2010 03:30:00;9,50
30-12-2010 03:45:00;9,60
30-12-2010 04:00:00;9,60
30-12-2010 04:15:00;9,60
30-12-2010 04:30:00;9,70
30-12-2010 04:45:00;9,60
30-12-2010 05:00:00;9,50
30-12-2010 05:15:00;9,60
30-12-2010 05:30:00;9,50
30-12-2010 05:45:00;9,60
30-12-2010 06:00:00;9,50
30-12-2010 06:15:00;9,60
30-12-2010 06:30:00;9,50
30-12-2010 06:45:00;9,40
30-12-2010 07:00:00;9,50
30-12-2010 07:15:00;9,50
30-12-2010 07:30:00;9,50
30-12-2010 07:45:00;9,60
30-12-2010 08:00:00;9,50
30-12-2010 08:15:00;9,60
30-12-2010 08:30:00;9,60
30-12-2010 08:45:00;9,60
30-12-2010 09:00:00;9,50
30-12-2010 09:15:00;9,60
30-12-2010 09:30:00;9,60
30-12-2010 09:45:00;9,40
30-12-2010 10:00:00;9,50
30-12-2010 10:15:00;9,70
30-12-2010 10:30:00;9,60
30-12-2010 10:45:00;9,60
30-12-2010 11:00:00;9,50
30-12-2010 11:15:00;9,50
30-12-2010 11:45:00;9,50
30-12-2010 12:00:00;9,60
30-12-2010 12:15:00;9,70
30-12-2010 12:30:00;9,60
30-12-2010 12:45:00;9,50
30-12-2010 13:00:00;9,60
30-12-2010 13:15:00;9,70
30-12-2010 13:30:00;9,60
30-12-2010 13:45:00;9,40
30-12-2010 14:00:00;9,50
30-12-2010 14:15:00;9,60
30-12-2010 14:30:00;9,70
30-12-2010 14:45:00;9,70
30-12-2010 15:00:00;9,70
30-12-2010 15:15:00;9,50
30-12-2010 15:30:00;9,50
30-12-2010 15:45:00;9,60
30-12-2010 16:00:00;9,60
30-12-2010 16:15:00;9,40
30-12-2010 16:30:00;9,60
30-12-2010 16:45:00;9,40
30-12-2010 17:00:00;9,40
30-12-2010 17:15:00;9,50
30-12-2010 17:30:00;9,40
30-12-2010 17:45:00;9,40
30-12-2010 18:00:00;9,70
30-12-2010 18:15:00;9,60
30-12-2010 18:30:00;9,70
30-12-2010 18:45:00;9,80
30-12-2010 19:00:00;9,60
30-12-2010 19:15:00;9,80
30-12-2010 19:30:00;10,00
30-12-2010 19:45:00;9,90
30-12-2010 20:00:00;9,90
30-12-2010 20:15:00;9,90
30-12-2010 20:30:00;9,80
30-12-2010 20:45:00;10,00
30-12-2010 21:00:00;10,10
30-12-2010 21:15:00;10,10
30-12-2010 21:30:00;10,10
30-12-2010 21:45:00;10,10
30-12-2010 22:00:00;10,00
30-12-2010 22:15:00;10,20
30-12-2010 22:30:00;10,20
30-12-2010 22:45:00;10,20
30-12-2010 23:00:00;10,20
30-12-2010 23:15:00;10,30
30-12-2010 23:30:00;10,20
30-12-2010 23:45:00;10,20
31-12-2010 00:00:00;10,20
31-12-2010 00:15:00;10,20
31-12-2010 00:30:00;10,20
31-12-2010 00:45:00;10,10
31-12-2010 01:00:00;10,10
31-12-2010 01:15:00;10,10
31-12-2010 01:30:00;10,10
31-12-2010 01:45:00;9,90
31-12-2010 02:00:00;9,90
31-12-2010 02:15:00;10,00
31-12-2010 02:30:00;10,00
31-12-2010 02:45:00;10,00
31-12-2010 03:00:00;10,10
31-12-2010 03:15:00;9,90
31-12-2010 03:30:00;9,90
31-12-2010 03:45:00;10,00
31-12-2010 04:00:00;10,00
31-12-2010 04:15:00;9,90
31-12-2010 04:30:00;9,90
31-12-2010 04:45:00;9,80
31-12-2010 05:00:00;9,80
31-12-2010 05:15:00;9,70
31-12-2010 05:30:00;9,70
31-12-2010 05:45:00;9,60
31-12-2010 06:00:00;9,70
31-12-2010 06:15:00;9,60
31-12-2010 06:30:00;9,70
31-12-2010 06:45:00;9,70
31-12-2010 07:00:00;9,70
31-12-2010 07:15:00;9,70
31-12-2010 07:30:00;9,60
31-12-2010 07:45:00;9,80
31-12-2010 08:00:00;9,80
31-12-2010 08:15:00;9,60
31-12-2010 08:30:00;9,80
31-12-2010 08:45:00;9,80
31-12-2010 09:00:00;9,70
31-12-2010 09:15:00;9,70
31-12-2010 09:30:00;9,80
31-12-2010 09:45:00;9,80
31-12-2010 10:00:00;9,60
31-12-2010 10:15:00;9,70
31-12-2010 10:30:00;9,70
31-12-2010 10:45:00;9,80
31-12-2010 11:00:00;9,80
31-12-2010 11:15:00;9,80
31-12-2010 11:30:00;9,70
31-12-2010 11:45:00;9,70
31-12-2010 12:00:00;9,70
31-12-2010 12:15:00;9,80
31-12-2010 12:30:00;9,80
31-12-2010 12:45:00;9,80
31-12-2010 13:00:00;9,70
31-12-2010 13:15:00;9,70
31-12-2010 13:30:00;9,70
31-12-2010 13:45:00;9,50
31-12-2010 14:00:00;9,50
31-12-2010 14:15:00;9,40
31-12-2010 14:30:00;9,40
31-12-2010 14:45:00;9,40
31-12-2010 15:00:00;9,30
31-12-2010 15:15:00;9,20
31-12-2010 15:30:00;9,20
31-12-2010 15:45:00;9,30
31-12-2010 16:00:00;9,40
31-12-2010 16:15:00;9,40
31-12-2010 16:30:00;9,70
31-12-2010 16:45:00;9,70
31-12-2010 17:00:00;9,70
31-12-2010 17:15:00;9,80
31-12-2010 17:30:00;10,00
31-12-2010 17:45:00;10,20
31-12-2010 18:00:00;10,10
31-12-2010 18:15:00;10,20
31-12-2010 18:30:00;10,20
31-12-2010 18:45:00;10,10
31-12-2010 19:00:00;10,20
31-12-2010 19:15:00;10,40
31-12-2010 19:30:00;10,40
31-12-2010 19:45:00;10,50
31-12-2010 20:00:00;10,40
31-12-2010 20:15:00;10,50
31-12-2010 20:30:00;10,60
31-12-2010 21:00:00;10,50
31-12-2010 21:15:00;10,60
31-12-2010 21:30:00;10,60
31-12-2010 21:45:00;10,50
31-12-2010 22:00:00;10,60
31-12-2010 22:15:00;10,50
31-12-2010 22:30:00;10,50
31-12-2010 22:45:00;10,60
31-12-2010 23:00:00;10,60
31-12-2010 23:15:00;10,60
31-12-2010 23:30:00;10,50
31-12-2010 23:45:00;10,60
